Chan_1_mean,Chan_1_std,Chan_1_min,Chan_1_max,Chan_1_median,Chan_1_mav,Chan_1_rms,Chan_1_zc,Chan_1_ssc,Chan_1_wl,Chan_1_iEMG,Chan_1_var,Chan_2_mean,Chan_2_std,Chan_2_min,Chan_2_max,Chan_2_median,Chan_2_mav,Chan_2_rms,Chan_2_zc,Chan_2_ssc,Chan_2_wl,Chan_2_iEMG,Chan_2_var,Chan_3_mean,Chan_3_std,Chan_3_min,Chan_3_max,Chan_3_median,Chan_3_mav,Chan_3_rms,Chan_3_zc,Chan_3_ssc,Chan_3_wl,Chan_3_iEMG,Chan_3_var,Chan_4_mean,Chan_4_std,Chan_4_min,Chan_4_max,Chan_4_median,Chan_4_mav,Chan_4_rms,Chan_4_zc,Chan_4_ssc,Chan_4_wl,Chan_4_iEMG,Chan_4_var,Chan_5_mean,Chan_5_std,Chan_5_min,Chan_5_max,Chan_5_median,Chan_5_mav,Chan_5_rms,Chan_5_zc,Chan_5_ssc,Chan_5_wl,Chan_5_iEMG,Chan_5_var,Label
1.441343275275187,1.161304871019143,0.0009067647345688823,6.060419925261427,1.1373378594447434,1.441343275275187,1.8509725661483456,1.1901741105688106,1.3736114753827326,146.99401132637152,4.91212618966143,0.0,1.4662968171459907,1.2849792618091251,0.0026525193630654803,8.060990577171504,1.104085546163735,1.4662968171459907,1.9496661404589215,1.557083206979213,3.210217826188946,114.88713429590271,4.741106878157967,0.0,0.5176344363069753,0.4247045044333871,4.202796485710267e-05,2.0438480550303684,0.4251716075570936,0.5176344363069753,0.6695665207706019,1.087855084476885,0.9680490013371355,141.30557121410098,4.922793270090401,0.0,1.8356350728971467,1.483651963266931,0.0011027180454459828,6.464711337096405,1.4125386314213646,1.8356350728971467,2.3602498318940586,0.9299437281160275,0.019036033389976836,142.14972422970894,4.937695736696363,0.0,3.76197107371452,2.770050185402939,0.0018991756849541597,14.530673798559016,3.2032095145610606,3.76197107371452,4.671788136154682,0.8218913799840026,0.3383814833662422,108.95289020976927,4.607673056569773,0.0,G4
1.3326087784940432,1.1213636957716537,0.0060494097323123205,7.880526732010063,1.0983317535766706,1.3326087784940432,1.7416379344496513,2.1966710102569933,7.661368817097969,117.22148015825606,4.769019487625291,0.0,1.4257512796652059,1.1295471590201784,0.0018570952776374092,5.365806857841999,1.2181083934325514,1.4257512796652059,1.8189677006251452,1.065867000363417,0.9452214453985088,108.28179933812086,4.627442129395654,0.0,0.5120340332492707,0.4145554959245551,0.0005559548722690807,2.3584873818096592,0.4161492790438402,0.5120340332492707,0.6588134109190318,1.2985531690569185,2.1176020459553238,122.96445067396742,4.739414424479352,0.0,1.6448369231597555,1.2675675899362666,0.0003696395205249267,7.561194812463292,1.3710549375707108,1.6448369231597555,2.0765876092393714,1.1284833288274434,1.5674741569410768,129.43470505248675,4.827250001227444,0.0,3.1260592135760117,2.3859001712939114,0.0009091121771575138,12.588689261189117,2.63100905624108,3.1260592135760117,3.9325266476101324,1.2573250705633856,1.973760659389951,104.71390080028291,4.633715595919666,0.0,G4
1.5524450370868317,1.3066493396368046,0.0007784892172584615,7.391064662526505,1.2209468181503031,1.5524450370868317,2.029142205452548,1.3341953968691518,2.032895312521937,116.78581375661614,4.742281498616197,0.0,1.2269378912453734,0.9909614782075721,0.001239000777762407,4.7090508649445955,1.021933361265285,1.2269378912453734,1.5771433797423051,0.954438576005198,0.34057034494159044,118.35747584516116,4.759047215783837,0.0,0.5331185941234045,0.38832920897372597,0.0002870562102168196,1.7369893912505523,0.45025723063793716,0.5331185941234045,0.6595566768233606,0.6116893156741972,-0.4754779124195303,140.12865035047935,4.881931404796033,0.0,1.9621599962413272,1.4095464650847034,0.00021288886079944003,7.165590374840013,1.717159232600956,1.9621599962413272,2.415966284550045,0.883276596356121,0.4473470027928732,158.88981915354793,4.974573797495188,0.0,3.540951200236953,2.759948085634728,0.0003367686719005225,12.284903320950692,2.988785795770088,3.540951200236953,4.489504297565413,0.8780242496049757,0.24546984857740028,97.8673199535854,4.4783733532403955,0.0,G4
1.3183222607007479,1.0871638621524002,0.0014267028883425542,6.184023804159502,1.0961946177720736,1.3183222607007479,1.7087711509237433,1.2850209285291443,2.0845427463950132,138.70510899378328,4.898564470499208,0.0,1.1734375101537962,0.9998379992944544,0.0010448745598777166,5.8200712368351875,0.9506674563266742,1.1734375101537962,1.541632775685921,1.495985229955329,2.944976008270455,148.4315181372913,4.9519078898469955,0.0,0.40513531345715487,0.3053977589237637,0.0016054215655336467,1.6659997450068087,0.36067195980267386,0.40513531345715487,0.5073484141748,1.1096834762521655,1.4160649395852358,129.0644034026278,4.834032756389769,0.0,2.3150076112016715,1.78356080430048,0.004242586796196407,9.22731910081431,1.8642792912528492,2.3150076112016715,2.92238761675426,0.9001078014690057,0.3088418591134712,136.37827082524285,4.891718792796716,0.0,1.068853681942837,2.3043391519367566,0.0022995125020692214,23.091654708854417,0.3577180009481483,1.068853681942837,2.540162813788,5.795948924494069,42.666583642478095,108.1326200785431,4.8266309240094785,0.0,G5
1.4400739774279647,1.219153665753178,0.00010274758276337774,5.781038373506824,1.122102209690508,1.4400739774279647,1.886835637034824,1.2929327790333642,1.4469678575004323,145.23690249616527,4.95573915663119,0.0,1.247709497630392,1.0327463795784937,0.0003031930294469451,6.473698949035383,0.9877240085131487,1.247709497630392,1.6196740644369072,1.4945572369377498,3.1226032562156982,139.11674612382373,4.919854275182351,0.0,0.40446964348079884,0.3720444852027573,3.6458208464410294e-05,2.8382270530567006,0.3165148228930175,0.40446964348079884,0.5495569046670865,2.486348901671645,10.19262121373845,121.37996225841543,4.794448167542788,0.0,2.038402430658164,1.7055019800727218,0.0004678217280650876,9.494142952649442,1.6152241793838806,2.038402430658164,2.657785069065045,1.307004967110784,1.9085467036946193,157.3013115956749,5.06355231562169,0.0,5.384385151898113,15.99767692910476,0.0003032886124961689,163.8382904295853,0.7364219376477796,5.384385151898113,16.879492604696132,6.078080354847824,45.16357813513798,145.6099258810075,5.1311111887064,0.0,G5
1.874134537060329,1.9042223367945423,0.0001990278583853533,11.563881594630264,1.2797876850346461,1.874134537060329,2.671786475553314,2.0311215416901662,5.087274467033417,138.49885142691815,4.95080420225905,0.0,1.408051498032658,1.0214162251738148,0.0007836914562096581,4.61465905569697,1.2347547900308307,1.408051498032658,1.7395114619226677,0.7827385371838175,0.013603532036131405,145.40948729416053,4.9054450260345055,0.0,0.47944556694815155,0.45778422494538457,0.00022065612544321447,2.4303222372940705,0.34454813850723004,0.47944556694815155,0.6628985203446158,1.6928947488990436,3.0957963477042814,122.92841112805053,4.815380515683009,0.0,2.271014918975488,1.848600806591384,0.0007342506232982798,8.47111592027419,1.7964574543054854,2.271014918975488,2.928281698255746,1.0395141154560936,0.5455480681992761,135.73332731880828,4.914984310136734,0.0,4.96719591743381,12.429424461499782,0.0026359753836962957,121.67794141993447,1.834712302488661,4.96719591743381,13.385201818661542,6.6320501060926125,50.01242358629446,135.50028530638227,5.0960644080243895,0.0,G5
3.075879584428703,4.899353149140549,0.001344325422002357,34.296538998074574,1.2879477854104833,3.075879584428703,5.784867889407563,3.0676478810921854,10.632992508878107,139.5894022080805,4.9285103904747425,0.0,1.5775823048981457,1.5724680728482667,0.00596784981489859,13.993171797414155,1.1901139799173213,1.5775823048981457,2.2274249187918516,3.3337498440045485,17.53877418856784,151.53111485744125,5.002346129401687,0.0,0.7382797798281571,1.1215947269688342,0.001550822044285259,10.756798500700707,0.427397365786769,0.7382797798281571,1.3427701831912287,4.676583847627009,28.98215449519151,128.24375390355476,4.946134990758054,0.0,1.4609487403989974,1.1938759172845075,0.004254410183455747,6.2478806786676495,1.1408021263125132,1.4609487403989974,1.8867196209149202,1.2785268319037035,1.7006819563635602,116.55850911194368,4.754335955446659,0.0,2.8403347619662704,3.82204904163411,0.00015477607826282647,25.27358511191189,1.411900197208292,2.8403347619662704,4.76188622676878,2.8594470454504113,10.296100225296003,109.19124274786068,4.681905584891293,0.0,G5
0.8700216163437914,0.7122251091572351,0.0006048898543669912,3.5803654591484095,0.7036436649079918,0.8700216163437914,1.1243674750807666,1.1152141854046382,0.8399281871889084,127.30900051557124,4.817539643341471,0.0,1.4014744871187732,1.049416999671407,0.002335663066818523,4.90725626531801,1.1595034976941117,1.4014744871187732,1.7508303108080363,0.7847601643597993,-0.10123241031841568,112.46030748180499,4.645606343156819,0.0,0.3141910437627202,0.2523191976868578,1.990603884051336e-05,1.3860004131214871,0.24930855648411748,0.3141910437627202,0.4029652460225908,1.029749073553839,0.6224617990674615,124.6390599618893,4.7997448257538,0.0,1.3897961192799853,1.1293001794945718,0.0014457950809702719,6.749100232434868,1.1503517384834143,1.3897961192799853,1.790768591575187,1.3029068862506346,2.141417908649351,107.1953145569138,4.633828167491606,0.0,0.9214182646012182,0.7421446874817427,0.001708823899795113,4.676950744564567,0.7468947712585685,0.9214182646012182,1.1831273623317542,1.6106988962912758,4.139952664981174,115.45574411057027,4.595718387169587,0.0,G5
1.086452605034597,0.8761124812828959,0.0007148150486288307,4.845323723422268,0.8660964061300109,1.086452605034597,1.395690632929137,1.2289655079675927,1.6269810390923514,124.86280648972861,4.776215264114387,0.0,1.2194932277871127,0.9608296541676672,0.0002572830679198196,5.3827620660671,1.0223424168962847,1.2194932277871127,1.5525325622822184,1.1956434572400743,1.598340462715976,112.8381494422483,4.6576397303299535,0.0,0.4222877774994723,0.3308764695677659,0.0008158073519354408,1.5707178154108972,0.3431661377343901,0.4222877774994723,0.5364757265143247,0.920668947756857,0.31962290401594107,126.55674284781522,4.803638512460217,0.0,1.366247519908857,1.095968097571607,0.0018710332040086652,5.133286036588281,1.0789517420800774,1.366247519908857,1.7515074526109875,1.1922212816484714,1.0068041254269424,112.1417913148005,4.672882328524967,0.0,0.8608298143677185,0.5639787683953076,0.0017600979020628627,3.0599963215131387,0.7700539327573268,0.8608298143677185,1.0291258526074685,0.8622035694446644,0.707949302710289,94.19152619758883,4.354122906756288,0.0,G5
3.222313054420428,2.397220682545352,0.012416189978769074,12.933251961943585,2.769303751092617,3.222313054420428,4.016213194230544,0.8669722240979311,0.31170683497692364,162.46672155851365,5.030121689114727,0.0,1.1043534298391051,0.9234440399122388,0.002037394847251685,4.5340206332488595,0.8710677479218794,1.1043534298391051,1.4395643066035055,1.0801964193764808,0.726637992317281,125.29647834294677,4.8167373733484755,0.0,0.46271269622676586,0.37751395034603885,0.0002500355436214352,1.9871112795550392,0.365357403223426,0.46271269622676586,0.59717654169878,1.2652228013121527,1.5708430153717208,138.0655571340114,4.892080165449947,0.0,1.5136843901849337,1.212136380162977,0.0007935077239105519,7.078132782916729,1.218972727105994,1.5136843901849337,1.9392047434977413,1.2399884199079703,1.8340685345599956,130.78604019117674,4.794925298772345,0.0,1.5974448284624214,1.3494517979529785,0.009261013379667884,8.517252284216365,1.291033607769581,1.5974448284624214,2.091136087149725,1.5027810266702066,3.451190718807819,119.36398466737921,4.74361819905876,0.0,G4
2.539810692776153,2.008241461224945,0.005107426642520077,9.56332802093037,2.0778991060832452,2.539810692776153,3.2378499226682793,0.9383428711792293,0.3394463085641317,147.4676409944975,4.977061872533342,0.0,0.9610779318252567,0.7612641961532643,0.002801821685990441,3.725784231680121,0.8249227763997675,0.9610779318252567,1.2260481097356615,1.069664735328007,1.0496152734385369,134.98692881970172,4.867721984281827,0.0,0.3462634667374301,0.31199322699549525,0.00025230143149541917,1.6720749986604566,0.2548131321372705,0.3462634667374301,0.46608814840981094,1.3415329104535565,1.72716170322858,144.1532524177643,4.9639770824180705,0.0,1.4765490261837895,1.12974329733116,0.0009206269037602757,5.643298195097219,1.2293117858023417,1.4765490261837895,1.8591710369379626,0.9188114440853336,0.270364533251477,121.94127110633295,4.769294017234702,0.0,1.2503981598338865,0.999829503653379,0.00027977364815331594,5.421831445808264,1.0478539146132997,1.2503981598338865,1.6009855072709847,1.25798841959875,1.6788066678779998,130.81398400331128,4.808517259611611,0.0,G4
2.6182609395449647,2.3941806699746935,0.007444319024099741,16.11416743725679,1.964385499098741,2.6182609395449647,3.5478713939526267,1.5967903393110794,3.7207026973491075,145.10847699990916,4.945009929823872,0.0,1.2132660033057951,0.9272816792637083,0.0009206872197504781,4.699190188077798,1.0608129234760586,1.2132660033057951,1.527044762760981,0.9146603509391029,0.5147538323836742,132.4328079398944,4.838653101626378,0.0,0.4207396265065231,0.38500952037537484,0.00011289539453505871,3.331461639494808,0.3217343971381018,0.4207396265065231,0.5703105856395484,2.502176473842407,12.154878123349965,125.36645794744075,4.815762091429582,0.0,1.4756131035326778,1.0853760696838108,0.00013130236255459726,4.450961910605495,1.1869591162006894,1.4756131035326778,1.8317956337865906,0.6576648542264543,-0.5010072285770657,119.38693958438944,4.731987452072007,0.0,1.4801945291974794,1.1155464782743247,0.006354355326990559,5.819180462775012,1.274046294948803,1.4801945291974794,1.853488545812031,1.005750249504051,1.0322943759316123,118.3228000959055,4.724591088817508,0.0,G4
1.9544432946868642,1.6756230355750696,0.0036370000737332847,8.564869713667628,1.4954702298454516,1.9544432946868642,2.5744050088314108,1.358700966922905,1.5562955525532267,114.37875723086138,4.721026841839153,0.0,1.6349221502864073,1.256621039495295,0.00024967024713615227,5.429152632969606,1.3985116766503416,1.6349221502864073,2.062054042550623,0.9875381652417116,0.5449163503961407,99.45028456581461,4.515418738755393,0.0,3.4881154067376245,1.9374447659373875,0.0041026027755154265,8.283348565712869,3.436903662762123,3.4881154067376245,3.9900678329796055,0.10710882070027461,-0.7806789830662297,77.09690411592013,3.9890309192038793,0.0,1.659126945928749,1.3617728130387712,0.009904667631602096,7.3868066579565825,1.4264438257790735,1.659126945928749,2.1464220034835617,1.3523834212417474,2.4218007241790307,122.01104583353172,4.740955594137741,0.0,4.2814487639072825,3.0177144727028886,0.000942014591270815,11.831037374610514,3.8748859131422924,4.2814487639072825,5.238072561231245,0.4396578494852584,-0.8531379141752344,87.53432588910708,4.371240543746048,0.0,G4
1.8652393606475428,1.4007800413328617,0.0010456016932698636,6.680710336062604,1.552445540704159,1.8652393606475428,2.332659983089123,0.9595900357847551,0.47830741209826044,113.45437099837525,4.674067007190125,0.0,1.4518809117520846,1.1450468633333861,0.002439500171782745,5.758572679031644,1.1599171149761978,1.4518809117520846,1.8490782842107283,1.1484082370042556,1.0178581409554823,87.20694590506089,4.415061178631785,0.0,3.808486615782889,2.3101308562238083,0.0016853458575475794,10.31782472883062,3.536585664823557,3.808486615782889,4.454354596961803,0.6147619109973443,-0.007557343131957772,66.90595579832797,3.946363763400891,0.0,1.5138572517936106,1.405813170591703,0.0004950917928053522,7.628718260686747,1.0508489206612528,1.5138572517936106,2.065931859819486,1.605197000682009,3.038058721652318,110.8198127383671,4.651960658432737,0.0,6.034168710750768,4.6592244993950205,0.002450501566880217,23.018484969584318,5.030174870106869,6.034168710750768,7.623618889055667,1.0631787767691103,1.0306338635198742,99.84797080749559,4.451729704052862,0.0,G4
1.8576433706764892,1.408872495267133,0.006408710486007538,7.49194677952376,1.5146074842801656,1.8576433706764892,2.3314717670472755,1.0443911140345903,0.8005370780249219,126.02528950754294,4.813010191785179,0.0,1.4260987194037353,1.159698915264383,0.0006979107752055798,6.739456551659756,1.1738486210962518,1.4260987194037353,1.8381129267676566,1.2250527114545424,2.1431667741875575,103.96203468518053,4.541819288944593,0.0,3.3950538514615083,1.7706243587206996,0.04491470964648696,10.165479243010438,3.2797811209693912,3.3950538514615083,3.82903398705453,0.5242113013322945,0.6317316723356234,66.45636718844811,3.885982305054663,0.0,1.6263897742654034,1.2784338436597134,0.001574451679617471,8.321739593025253,1.3413561094361057,1.6263897742654034,2.0687041331349487,1.4622559311508694,3.3942947634131073,107.97919175701263,4.620396772381819,0.0,4.84666750458181,4.06141667289153,0.011023352730360952,22.31630199286439,3.689709278675249,4.84666750458181,6.323392387857215,1.3133989867087692,1.8298791573837194,64.99638291916285,4.150363112337266,0.0,G4
1.3243114285498376,1.0498204531510367,0.002772962513502203,7.19659814618432,1.0845827299856388,1.3243114285498376,1.689947852343959,1.2576928322873024,2.421205769584393,155.4249972173829,5.02700912356188,0.0,0.8586850452757044,0.7040952989126953,0.00041189895354258946,3.1462401157343054,0.6288603798264771,0.8586850452757044,1.110445945073913,1.0297688542385721,0.36382083537970233,125.27240302934874,4.791621986764644,0.0,3.2358986076191742,1.7460293679890018,0.014090371323652921,8.661486889095485,3.056379571835963,3.2358986076191742,3.6769088039645177,0.46159693318511935,-0.0602761999999637,96.0768882986372,4.261652802968612,0.0,1.5697755233014299,1.2025394432365932,0.00014079055984514768,5.946477673735668,1.3479123143782608,1.5697755233014299,1.9774469161259558,0.982613539731302,0.5478285541807559,138.8375070632611,4.831439186831228,0.0,0.18643312774117576,0.05628607209247611,0.08979365518104954,0.3093502846160287,0.17580693020837485,0.18643312774117576,0.19474453273701156,0.5193949003499891,-0.9388393469973262,89.48832992183041,3.3823701371426456,0.0,G5
1.4141974301479758,1.138286188490159,0.0033355275707754733,7.228111559585239,1.1830559522775304,1.4141974301479758,1.8153924695075145,1.8237289499507274,4.965876856558043,141.22201360446337,4.884955440490792,0.0,0.8186224932200405,0.6479202057983144,0.0016693552999457045,3.2469584174905752,0.6501791523805086,0.8186224932200405,1.0440035342313383,1.0774439385969987,0.6399704472616179,119.80772156182009,4.7230610112775375,0.0,3.1793625709453046,1.5213032063980851,0.009045708889715232,7.46893001768967,3.147907036740046,3.1793625709453046,3.5245864726695286,0.10889718930153411,-0.28093990164671734,60.649748640084205,3.8481797243231126,0.0,1.7984397654915063,1.4078132168546562,0.0043839465236574365,8.206529039570217,1.5411019951233007,1.7984397654915063,2.2839272413217984,1.2406566285962572,1.8134909289978314,127.41850069180019,4.779637751620522,0.0,0.08916120722397164,0.011182103796108908,0.07881374290352725,0.11633851995839467,0.08374567537124535,0.08916120722397164,0.08985967014708528,1.0280228340706299,-0.3204053548153589,47.06624530563872,2.005841897965605,0.0,G5
1.378902293445914,1.1082677539210088,0.002485053824937246,7.135153537990624,1.166613543052604,1.378902293445914,1.7690757330457958,1.464268077242857,3.4049285324930247,133.9786960715184,4.854176756177469,0.0,1.0200323555904842,0.7092776669530831,0.0010116397482306284,3.056417618458075,0.8738759690935985,1.0200323555904842,1.2423931806356154,0.6700864163951277,-0.35998072381039137,131.8606902138517,4.805901145926467,0.0,3.2847909345686657,1.4114518617048966,0.016277968144940008,7.362040545178393,3.227737522718231,3.2847909345686657,3.5751989933057864,0.12910171027625922,-0.2830760444050773,76.98306135334099,4.055878226914367,0.0,1.948577436382752,1.3165425138244091,9.210535323897484e-05,7.61156109740577,1.750318584536379,1.948577436382752,2.3516458526502397,0.871517820786975,0.7537199391313849,126.34446113454332,4.77278128516199,0.0,0.06683902860486682,0.02528270267775848,0.0073733339917513505,0.19191219623179723,0.06701151116011606,0.06683902860486682,0.07146097396155568,1.7965139392943785,6.323576091033816,81.76660284960936,3.969054708562402,0.0,G5
0.7792685067699856,0.6164727229806467,0.0007849697542290715,2.846288780695976,0.6449335680906154,0.7792685067699856,0.9936287152768363,0.9229874656165244,0.24077181151430604,90.987816175707,4.404510184086232,0.0,1.0285071909033427,0.8496511186921907,0.00036034674697689104,3.95891437951985,0.8157107568282365,1.0285071909033427,1.334066739423023,1.2645859176159637,1.1172669494471865,123.45366526453701,4.6063409975939615,0.0,3.153067285029324,1.500039887395381,0.0060101933207879765,7.032728238008772,3.104104350428103,3.153067285029324,3.4916977199779677,0.0676975374940717,-0.6652985504349558,58.98595539367627,3.6408895377341888,0.0,1.0434476520027578,0.8505158708512776,0.0007362215242952325,4.040769408225381,0.8463555096196964,1.0434476520027578,1.3461650155311478,1.015052117637435,0.4999030598577656,88.97995234928251,4.471086930911813,0.0,0.15633751092338266,0.138753894133952,5.780421016963501e-05,1.011793083980981,0.12874780338374114,0.15633751092338266,0.20903124278216104,1.7967238402921883,5.024991314175372,151.60866375013103,5.0319194208444795,0.0,G5
0.7839291081781037,0.5768068061814094,0.0012742717995123595,3.090547636761269,0.6927279426854576,0.7839291081781037,0.9732681738894554,0.8114576169613523,0.363420576610459,130.89172668982073,4.759213115388572,0.0,0.7939495574342798,0.652905509343715,1.2134044222676318e-05,3.147317918680011,0.6702844973062101,0.7939495574342798,1.027930690212849,1.222515168350674,1.4509281846389745,99.78611439140595,4.574875187535121,0.0,3.1717863678742777,1.445640483912391,0.012083908220775982,7.049267556758301,3.099036716780313,3.1717863678742777,3.485700097851156,0.17982060715468673,-0.2850845841877394,50.592280512467305,3.611266436854362,0.0,1.2677646998172047,1.0627914014060873,0.001817433301691207,5.490647625192466,0.9695388899958804,1.2677646998172047,1.6543134216360942,1.1908657255518524,1.5043437019806492,86.38793735631421,4.396934328618976,0.0,0.09654486882992129,0.09219126611047665,0.0001107465568732837,0.5921245289628468,0.07246941867484896,0.09654486882992129,0.13349210180546048,1.8518260650860363,4.205208254156121,183.63858096761723,5.21624894357784,0.0,G5
0.7120993153729526,0.5043099049820385,0.0004736410185079215,2.5790347629259,0.6356809530037256,0.7120993153729526,0.872590347882453,0.626804942002052,-0.3410901357218874,131.3067980706748,4.718682055189666,0.0,0.9523838612923226,0.7998125285274685,0.0016426439344146958,3.8593164726971354,0.744535938070751,0.9523838612923226,1.2436780532113512,0.9435028775292169,0.2335337729952789,84.43411188078325,4.422337730541073,0.0,3.2738035987197245,1.5728089586830243,0.02125326336216677,8.989510315232934,3.3013645609534477,3.2738035987197245,3.6320129437412247,0.4256259290491044,0.7205803537004662,80.65572232526533,3.9683081337639736,0.0,1.124090961734517,0.8791588140885808,0.002388682400240087,4.667777458814917,0.9116213964405195,1.124090961734517,1.4270601636381244,1.268033318055591,1.8582131548171397,114.32864123387016,4.654794814125918,0.0,0.1347814278593304,0.11541293579102707,5.107606833551254e-05,0.5979803795739277,0.10204636805699042,0.1347814278593304,0.17744345308774745,1.2941368456630136,1.4220913357996965,155.38059213371483,5.005166787462549,0.0,G5
1.0814706871244824,1.0343355416344036,0.0001779559294907418,6.121916151179727,0.7854050817391927,1.0814706871244824,1.4964721379957713,1.9179548285041024,4.361619047128134,150.2086963098988,5.013809559867038,0.0,0.8578044242685562,0.725975092387744,0.00011962201561763891,3.395044928846794,0.6478481608198845,0.8578044242685562,1.1237741165652921,1.176507035979213,0.9170263203580054,117.97174080623124,4.711572321512407,0.0,3.4279244165526244,1.5536172535031594,0.011800657913732235,7.462837960153884,3.3427989994473477,3.4279244165526244,3.7635611295660323,0.013708921239566336,-0.34612866250435914,101.31499005766526,4.137688851271927,0.0,1.074259644768947,0.7509233994609895,0.0005167706029819401,3.7168493569881123,0.9755885017902554,1.074259644768947,1.3106943717881576,0.6930680757733014,0.15451378709595875,96.09253310297663,4.4470728132431665,0.0,0.18578243136500638,0.15730391573672728,0.00024079236472037823,0.9068415802837531,0.13897990100311164,0.18578243136500638,0.24343301688555047,1.2569104738218413,1.302093718657816,140.17124910797017,4.912809917869029,0.0,G4
0.8602367839633324,0.7131850806258905,0.0014276639819466802,4.3609576237719105,0.6745720624830478,0.8602367839633324,1.1174257396851637,1.3832381501435356,2.2652078198406658,148.0254671865307,4.980143689538024,0.0,0.9766782959164239,0.6577430643183333,0.011641784367419982,3.213309413723198,0.8782595813671031,0.9766782959164239,1.177508569978614,0.8024541362560099,0.19119411974508838,113.64670738338691,4.62506889033914,0.0,3.2756881828719564,1.3727914297114867,0.01570069381071705,7.358293151899041,3.2878712034272057,3.2756881828719564,3.551716399277438,0.3032524306305505,0.1484131417625716,71.32640320941645,3.8007639963395277,0.0,0.911783270178837,0.766763567745576,0.00048414787117792915,3.5645232380878995,0.7192755436344773,0.911783270178837,1.191333328921817,1.2807458116949682,1.266945241258501,89.12205539054663,4.423591325811325,0.0,0.16675947955870962,0.13770350072474616,3.11961608830116e-05,0.6906993249522194,0.13040483135987374,0.16675947955870962,0.21626598931533791,1.071615285489458,0.6251884948634969,147.53152951582862,4.98687376244251,0.0,G4
0.9495558741679626,0.8644156533315325,0.0067192370895377,5.194230702211714,0.6977016497973171,0.9495558741679626,1.2840836343055946,1.666201088238109,3.361308728279912,150.88980361225086,5.0447781782007075,0.0,0.8869844933508833,0.6840854776550572,0.0007859450608607623,3.1524704211797494,0.7209032280936634,0.8869844933508833,1.1201403627150799,0.9262480227315245,0.25487013884823817,112.23644657426732,4.659457827771705,0.0,3.2708456894098346,1.6968732011786747,0.0012439145427372636,7.982122063764037,3.1840940430021023,3.2708456894098346,3.6848080255027202,0.15160813505087692,-0.615159031842675,67.39756873644365,3.85016639191591,0.0,1.1495662870511452,0.817715369437301,0.0001451406942234593,4.147663079096867,1.0481806718948612,1.1495662870511452,1.4107306878843096,0.8003431028968155,0.42419443211264873,87.39424880352036,4.37170055541469,0.0,0.15349528007946173,0.12548336654612546,0.00013057660571697991,0.7097725404478377,0.12763402170549293,0.15349528007946173,0.19825961839573303,1.2964595899069495,2.3046695699916286,150.50935843873214,4.9974136632917885,0.0,G4
2.207215872133185,1.6980629173421453,0.005012067294899725,8.686563970258877,1.7652519374680753,2.207215872133185,2.7848194874083263,1.0446537764197568,0.7763994086425394,177.1835656787449,5.121863952443789,0.0,16.6458895519438,15.864118642850102,0.04852855881800938,99.33714261115934,12.858025896102925,16.6458895519438,22.994692850523922,2.1724655294160975,5.997347944779971,150.1043949595511,4.959165024937592,0.0,8.912347664783036,7.385573920051555,0.0017235715561621512,35.55397384583464,6.93677998111443,8.912347664783036,11.574827991227746,1.2021581729271698,0.984756062041583,156.94855656700094,4.993750311428372,0.0,5.464791039751608,6.467502489310044,0.007126193844580228,36.08025031434005,3.3464719594150063,5.464791039751608,8.467144120503743,2.282268276769955,5.349594361765323,110.00300889928563,4.709341266151842,0.0,0.6718375936102514,0.5022477812770644,0.001059871509694825,2.8984659018439807,0.5620955150954106,0.6718375936102514,0.8388197577464108,0.999431231712525,1.0550896985839433,122.51316268232753,4.764969428157558,0.0,G4
2.1141689248579723,1.9250965208862267,0.0010810240326723924,14.42525899497487,1.6052228801094195,2.1141689248579723,2.8593192996871424,1.9220637445639135,6.009926679630297,148.6814647995951,5.0180999630504175,0.0,14.957634562545046,14.667597093731173,0.014490039709893543,93.7879631504325,10.37814718706104,14.957634562545046,20.94920609977078,1.8998264750507488,4.474948976928492,145.3352696999892,4.9756068866878245,0.0,9.325504298830896,8.80590361394036,0.002654627158507984,52.27805738668191,6.441736854157598,9.325504298830896,12.826104977175316,1.7259164900148438,3.354292278268235,140.16101263125574,4.914498240204065,0.0,5.053717941468188,5.493354171505603,0.009522606118168409,33.127352442594805,3.7873830980752845,5.053717941468188,7.464382431622556,2.430191270249449,6.8561874372019584,120.82726071661281,4.795233707882508,0.0,0.8767224836316437,0.7508587128962225,0.004514917513500672,3.848716820555422,0.6660886365930087,0.8767224836316437,1.1543098024522747,1.0824109538311424,0.7410129750223855,134.9909574580508,4.875617048575715,0.0,G4
2.1578865433050276,1.887025732309156,0.0011445323720995493,12.194687969222679,1.5691669642965171,2.1578865433050276,2.866590387232509,1.6183342366750402,3.580256003923668,162.8411665522822,5.096027667575451,0.0,15.727936104631006,13.430280498530113,0.003078657124854778,77.60476050617231,11.308964018816678,15.727936104631006,20.681885996701407,1.5639620982890092,2.9573630430426743,154.3301706427613,4.987271871214714,0.0,8.362093188691022,7.903028409435351,0.0019318877817290428,50.134529735281816,5.816097261137946,8.362093188691022,11.505757712410558,1.8437565313141397,4.537004668899684,143.207691625062,4.944683593295499,0.0,2.5434218400710007,1.9962718972653395,0.007582949757768543,9.613368069739904,2.050886617966092,2.5434218400710007,3.2332794720471525,1.080065630670902,0.8167111726072629,138.04098071450085,4.891045823693089,0.0,0.8682854348824283,0.7392041832997912,0.0039299218579928455,4.110989549559371,0.694602484872294,0.8682854348824283,1.1403255767704585,1.4144250338453797,2.0628744739757066,115.8594493207687,4.711982770044726,0.0,G4
1.5853721499062572,1.3974852732565322,0.00020577790073317975,8.338119920398716,1.1886395873595004,1.5853721499062572,2.1133787977235103,1.7051920885367076,3.6512896248639235,128.23395687500502,4.798668661115396,0.0,2.237967184080298,2.6919457693603133,0.004937617770244398,17.544367415329493,1.3655883245694724,2.237967184080298,3.500724088270481,2.3054511252566563,5.5869926002440415,144.6623464155186,4.982996801943355,0.0,3.264846951770909,5.995082390955152,0.00036359649132838845,62.09966950367829,1.600710931470132,3.264846951770909,6.826436734697564,5.872491586874016,43.27396779394941,138.90148933376946,5.035579620916287,0.0,1.9522568257894681,1.7399333499104987,5.2234654643879e-06,10.659623002892701,1.5877103443016036,1.9522568257894681,2.615085997815816,1.641999071084989,3.425328322180814,145.3484843409239,4.980834158544261,0.0,41.16429393401424,46.099475064164416,0.010623546952675592,348.94216188397695,26.551302629947596,41.16429393401424,61.803403597839484,2.5752393147821837,9.314753383645296,154.9446350630567,5.082436763646607,0.0,G5
1.4154794232006593,2.0625509413397034,0.0012126046585971897,20.740395893128866,0.8480106425399625,1.4154794232006593,2.501539202796104,4.993168498917346,34.395977402065405,122.55207911706214,4.932229745150946,0.0,2.5967835081006907,2.9801826487626975,0.006793949874823626,19.523639859668737,1.6592094390588563,2.5967835081006907,3.952818387926515,2.5833463437729844,7.886153444858563,106.8704406501489,4.71340220753204,0.0,1.9771453802776118,2.1817958623100266,0.0010157999028291148,15.835930751442481,1.3007059119166924,1.9771453802776118,2.944373794127752,2.854544263454778,12.071702434209588,130.78615154227901,4.89966154354979,0.0,2.205747630396519,1.8684602262921683,0.007437477395738131,10.38798163594315,1.8161787058576373,2.205747630396519,2.8907553037632985,1.4584184450047066,2.6231232311717063,153.78551015959508,5.035415403928441,0.0,47.003463101033766,67.20552172838912,0.0018912516017735026,555.9605793448305,27.196793035178874,47.003463101033766,82.01163145722212,3.910083825592924,19.102877063913,148.3781281345959,5.0743886542852765,0.0,G5
11.87342914256073,12.332336413675058,0.01827079166927742,77.81700081956134,7.740889413369423,11.87342914256073,17.1191366903669,2.114286719565191,5.81159597539293,106.35796955613223,4.6524495198133975,0.0,7.423074333310637,13.037130874641333,0.004034909571855623,105.76257255184169,3.687592660493621,7.423074333310637,15.00229362465558,4.434302717989801,22.58599420460546,185.49880842978496,5.253605710942837,0.0,7.074820541859725,7.320063095079819,0.003565361334188638,82.88835460310199,4.962221124201875,7.074820541859725,10.180196924198956,2.8666343167208233,15.95479098457843,251.14625145211002,5.534375023834641,0.0,28.46312596490881,31.415443819458165,0.006091866573911364,158.99107968223217,18.02913792095438,28.46312596490881,42.391976246311025,1.8842214067372256,3.4852556025962835,97.86102739855176,4.558553899076875,0.0,35.785737895664745,36.35805941668207,0.20517414393124395,247.965589645874,24.013591965190585,35.785737895664745,51.01497350076935,1.9020856804034052,4.82341209126996,147.4067213445219,5.0136784510129875,0.0,G5
1.3421901956285986,1.100062131519085,0.004344725323207313,6.402537598913566,1.0906831926045797,1.3421901956285986,1.7353994394501366,1.4295269416843075,2.4640641768968043,129.73902374043493,4.865321398230788,0.0,3.1472548898145716,3.2933447035514942,0.002079137364588564,17.073144024507027,1.9416353003774887,3.1472548898145716,4.555363067623964,1.6877321179009266,2.6769543267634432,132.7570128257393,4.918990973700778,0.0,4.299936549111173,5.499611401336508,0.00048040597082660286,49.480329982483205,2.836204245298361,4.299936549111173,6.981058651242848,4.289806035060997,25.577653603641647,116.40609912261608,4.820444562509099,0.0,1.537612651604531,1.3476537939785629,0.007600538295843853,8.876653332779656,1.2430607280418204,1.537612651604531,2.044608376877864,1.7377614979172114,4.244116523886331,186.56610751341444,5.182661473486932,0.0,1.0574867423701662,0.9577121292028172,0.0011184434897383334,5.605273719522465,0.7917998670657773,1.0574867423701662,1.4267062531267114,1.7315261686501444,3.547368095518557,125.44404337487454,4.774076618024936,0.0,G5
1.2094741370012585,0.9722633897909309,0.001008400726656037,6.371783719637317,1.0086380984920724,1.2094741370012585,1.5518130645160486,1.5106235690377656,3.859220338684577,104.95090095509272,4.607483280795716,0.0,2.5906140091697756,2.700719745894884,0.0037254544324593075,15.000460263380132,1.653075675912932,2.5906140091697756,3.74234793817641,2.120304010837655,4.98051287002925,142.42207259311024,4.987705153006427,0.0,2.721431112352515,2.195468154521367,0.0018379008040376732,13.367439954321128,2.1735238602232294,2.721431112352515,3.496608030191217,1.3363460022555336,2.277080588176446,145.1694343462233,4.938416023702096,0.0,1.3546921676625538,1.1496610333609296,0.0007906390281125567,6.899442725944877,0.999864376827083,1.3546921676625538,1.7767699234157441,1.391319028548452,2.4417973607068477,104.15850398136499,4.612592832746302,0.0,0.533310224742153,0.5622209758275163,0.0011127541433536975,4.2710952755246465,0.3658413265362699,0.533310224742153,0.7749272362454235,2.40426609558907,9.025795701484665,130.33357785706627,4.891248917251751,0.0,G5
1.2739150215425408,1.2693751150022403,0.0011713801419909083,9.140114027278036,0.9488035872118944,1.2739150215425408,1.798380567260079,2.3199283675184756,7.584266639101568,135.64205905333657,4.956414611334676,0.0,2.232054981003698,2.51839552281958,0.004695381150344475,14.387826345652138,1.5112199681259553,2.232054981003698,3.3651724246435166,2.3370414352448043,5.915773252456065,139.7938217551385,4.963335834561763,0.0,2.367580144694979,1.8453115876062856,0.0039178361002069895,9.840067101250687,2.015543099885468,2.367580144694979,3.001767911899241,1.051440200526933,1.1546602518950175,144.48516945038634,4.925652501313335,0.0,1.826434986305009,1.712072037335361,0.0022105199256394203,10.492770561143402,1.3554037443150424,1.826434986305009,2.503408760115821,1.714785442888159,3.6159309152517194,170.3210921417608,5.111240505480889,0.0,0.3565201229142497,0.39589477629551545,0.0004435680389052823,2.54380378623933,0.2175758658678374,0.3565201229142497,0.5327656820224703,2.0884689306372493,5.24770321948305,140.70872306135342,4.9340292796397165,0.0,G5
1.0814797985050202,0.8030774725303185,8.745363752740015e-05,5.295866981986062,0.9061169737033338,1.0814797985050202,1.347045649360163,1.1079284804349832,1.8011464019810832,145.48956892432287,4.9316592744554635,0.0,1.0851546021443514,0.7925660755520298,0.0015590712479555426,3.6640777769359167,0.9099706779463774,1.0851546021443514,1.3437713699402185,0.8931119041810046,0.28300552859405315,86.7883809149602,4.366575975571717,0.0,1.1469659734280357,0.8645049389426717,0.008835612787687741,4.208857669749731,0.9945097533148315,1.1469659734280357,1.4362798242884267,0.8703454164380808,0.26767675193623974,101.85716182335155,4.520529069253529,0.0,1.0041804290792382,0.7984195205736254,0.00014779208655489595,3.9731426996283847,0.7698777444008957,1.0041804290792382,1.282907660347689,0.8970301773393458,0.1965463001964407,109.4387561923209,4.626644869090967,0.0,0.7981563585207324,0.6041968326088025,0.00048165502016759773,2.843939244936252,0.6707791329865275,0.7981563585207324,1.001053138040926,0.7714768332679878,-0.15801622915039104,93.08281520570323,4.425556005765992,0.0,G4
1.2449847322860161,1.0227075484358197,0.0008373946505257431,5.64483010145841,1.0240246077858988,1.2449847322860161,1.6111851889999758,1.330034059768328,2.062832022216239,136.68384092107075,4.923945967041854,0.0,0.9352108632479512,0.7801649791442186,0.0011075485579656215,4.631699838082997,0.7762877828026968,0.9352108632479512,1.2178984988167434,1.487767322384342,2.7212509580773423,134.41769438824755,4.790725159199695,0.0,1.1117778206679416,0.8625971994288473,0.0008499206256835806,4.212553638987152,0.9492026715675148,1.1117778206679416,1.4071687357924239,0.8983516284302945,0.3211119334614807,102.40264219721458,4.511490605187298,0.0,1.2805364228780682,1.038301799115876,0.0016719523385595857,4.823302087358507,1.0583813351911218,1.2805364228780682,1.64858853458485,1.0857680320264407,0.7295599760198677,93.2866740100924,4.4829104744511215,0.0,0.816013337623284,0.6731178171494412,0.0012855980481379682,3.529699180127455,0.6553797489733288,0.816013337623284,1.0578115914202868,1.092835551344554,1.0186509828160721,82.69980275535431,4.320714261512425,0.0,G4
1.2086135561923665,0.9853666216457456,0.0001831104869485841,4.805399738257352,0.9858321176016254,1.2086135561923665,1.5593890172966811,1.0441203165598145,0.6842049137363224,139.74411103943433,4.94367562579078,0.0,1.381671606887483,1.0782550867504794,0.0036568175849797492,4.590255022519818,1.1020568134188151,1.381671606887483,1.7526124675416193,0.7793112091553678,-0.37699370972041457,117.19156435278795,4.5917908126159706,0.0,1.4168274090127466,1.0150359811429142,0.0030474750815673753,4.60982680541344,1.2441846200307216,1.4168274090127466,1.7428992942635932,0.6896465793105127,-0.1567743266024939,99.32963989752173,4.437154965867297,0.0,1.1985072023034156,0.9783092446516618,0.0013811048905659935,4.908833436129474,0.9452413369319078,1.1985072023034156,1.5470967946912908,1.192478348401004,1.0626971275469739,100.15619626035634,4.542691251828264,0.0,0.7640814639565958,0.5744367071426811,0.00024598527423394696,3.1044637785504188,0.6873463737066504,0.7640814639565958,0.955927828904976,1.1020244488133235,1.5804344027871338,87.15224249150478,4.344860708845288,0.0,G4
12.65438483095206,19.815348126771312,0.0008233420693577881,150.31915497163035,5.536063897506132,12.65438483095206,23.51130529840844,3.4755984727503493,15.240428389903379,139.79833070646345,4.983941268807927,0.0,19.80394971536656,38.99031416464942,0.012519393521888703,310.373246213139,5.991246152675343,19.80394971536656,43.73146490785357,3.8748423696433285,17.783125302602514,139.4888661496979,5.023717165370536,0.0,10.325230590397956,15.638999196742366,0.003439174733263717,146.6411414905974,4.11268033359581,10.325230590397956,18.740028885265843,3.927779027105061,23.342527349675805,119.62081719271421,4.895927690509906,0.0,2.758668974069567,3.1854499107665664,0.005156929694119725,19.960920346409672,1.5698763100766207,2.758668974069567,4.2139465637922795,2.077981093145684,4.74807300772082,125.31363435412216,4.82367293490667,0.0,78.19853118209913,130.8781565244029,0.05410323336283658,838.3021636021101,32.39035416129528,78.19853118209913,152.46016572949097,2.985400880120539,9.589627171621578,145.33812624348982,5.045842351347572,0.0,G4
2.8060964784436746,3.015142570538967,0.001631534013456698,23.35148767510037,1.722018480451013,2.8060964784436746,4.118890890398813,2.45814486315089,9.747689977124775,171.7523749049953,5.154054953114448,0.0,3.4235994274130768,6.9408990405159665,0.0007493737571835201,66.96257382643773,1.4068461466798867,3.4235994274130768,7.7393224852062215,5.020032358957645,32.128323769186395,125.56432335479029,4.97063694898147,0.0,1.982010696804773,2.480227450904037,5.656066447598876e-05,20.563273550861712,1.1292180916765462,1.982010696804773,3.174884975942668,3.2682218209881455,15.797725852860776,146.8165910461151,5.0080194077242846,0.0,1.6304830373806853,1.3083473520788365,1.5749405698800307e-05,7.568891573566541,1.3357614824996222,1.6304830373806853,2.090513747593602,1.1690816708061216,1.542503129249833,91.40703418799224,4.461516887538747,0.0,13.755538644896097,18.623734021241663,0.002112606243818503,157.01070401918264,7.792085040322828,13.755538644896097,23.15293312531231,4.031900679032596,21.245514002682043,142.2357996257438,4.974786558708819,0.0,G4
1.5105086911966095,1.3858278849640873,0.0014573215454828314,7.31667087504334,1.1063525100658347,1.5105086911966095,2.049915957527169,1.6822962262608958,2.9770746404313737,155.43497030948976,5.044930024143867,0.0,0.6460191770210402,0.5201800400515515,0.0005498533557830206,2.778345946552542,0.5498883626282336,0.6460191770210402,0.8294142819767306,1.3182229671193808,1.9409739323784123,137.2004970198705,4.90987528402584,0.0,0.7160485739409044,0.5127728475819661,0.00042510325836996044,2.496875824943897,0.6002484222492884,0.7160485739409044,0.8807165000498861,0.9086378307675735,0.3081630901672914,121.8554586343888,4.729011118758228,0.0,1.7183293028654456,1.7514110418159687,0.0008237091261125533,10.290518287228275,1.1385115710166085,1.7183293028654456,2.4535884395067042,1.8658959372629351,4.010550484578359,115.30575594281618,4.670730270117262,0.0,1.3389555825779609,1.175345379445214,0.0032967309210764247,5.38675180535492,0.9697891251694306,1.3389555825779609,1.7816393611221946,1.3709853938097893,1.462626850248613,82.0650604065292,4.3011790931463,0.0,G4
1.2318414690265922,0.986625292305579,0.0018580202745645952,5.230382238467569,1.0115715512599297,1.2318414690265922,1.5782467716522224,1.0374464678741964,0.7645045767366851,174.6178213812207,5.114321409536664,0.0,1.1608006610571866,0.9088367875789182,0.00019463580852820128,5.0331024654759045,0.9476818305867265,1.1608006610571866,1.4742599774692282,1.159865798543258,1.5665415547693273,155.022815562803,5.051181927705733,0.0,0.7763039996280608,0.7066786745915367,0.0009060877410017642,3.5786710153464325,0.5942825831966436,0.7763039996280608,1.0497821912001437,1.438179906780688,1.9284144626574156,131.72072886957287,4.868082238395009,0.0,1.3049056715571627,1.014019993408769,0.0015831351912962716,6.435547217156945,1.064401385902865,1.3049056715571627,1.65257839714029,1.4439326574230473,3.6167972361521548,103.35390041163438,4.600934933575349,0.0,0.21678206662590885,0.17547377591615546,0.0003141348696946737,1.1669931400264943,0.17856116709650263,0.21678206662590885,0.2789005386242076,1.423771018122629,3.1036038370922086,155.12450981395617,4.956537946244277,0.0,G5
1.37465630157163,1.03595745969222,0.0013703995262264136,5.7615936770558935,1.194012495291033,1.37465630157163,1.7213041003095735,0.9437109464961434,0.776781920161711,140.25680721081423,4.881555110606308,0.0,0.9545138004073209,0.7525504665932725,0.0011695133355019566,4.757693796119654,0.7835503602688458,0.9545138004073209,1.215495289969393,1.3532348238584364,2.4853210531735623,137.89880451625706,4.8938470717484055,0.0,0.7202191632743508,0.5414897731164611,0.0006985703038200324,3.768168669122397,0.6351487824348545,0.7202191632743508,0.9010698183477918,1.5978840656145967,4.666788169258419,118.84709973323493,4.7032025654333,0.0,1.4690934839559464,1.1530749312171253,0.0010764791928803627,6.544854781824277,1.18060333229243,1.4690934839559464,1.8675699348627346,1.1798528033605529,1.681789744991069,93.095883131286,4.477475947977985,0.0,0.2288864247281913,0.1935602406512707,0.0001025930561980087,1.0478838702930995,0.1854393752891866,0.2288864247281913,0.299757505637193,1.4030762211515106,2.0463353373834163,120.80391856486031,4.784542242464468,0.0,G5
1.4815051081262978,1.1149423674457992,9.129287712389411e-05,5.390190211884839,1.2335121443628891,1.4815051081262978,1.854172016866277,0.9148371693454113,0.49104645551139336,148.6571782490104,4.920016567556102,0.0,0.9535303372875428,0.7425916650267814,0.0013068410336283041,3.7906139316374143,0.7769401578879424,0.9535303372875428,1.2085787045513183,0.9063631382766046,0.30288592252586444,144.9661196118388,4.923101513005133,0.0,0.7755183725713769,0.6241258201288031,0.0006334523879688025,3.6224637090647924,0.6291476403309347,0.7755183725713769,0.9954706352008622,1.2086181897644566,1.7636306568348363,114.38118157081595,4.700786796505949,0.0,1.1511579584428113,0.98660147776704,0.0006697190841202291,4.95203575951725,0.8105643474233613,1.1511579584428113,1.5160960131925447,1.111949913409002,0.8002398428025699,119.52211332041931,4.70744467801453,0.0,0.22566208664570378,0.22600870977177903,3.528318519187886e-05,1.4068109314949162,0.1572898996019258,0.22566208664570378,0.31937957705839204,2.03283659783911,5.4225096880405825,121.24838702896369,4.824022597389911,0.0,G5
4.110391488686498,3.6188554235060657,0.007664520905580216,22.8367670753184,3.156520464236353,4.110391488686498,5.476443441368283,1.703522051206202,4.049617257762965,154.1874938021144,5.00626403239091,0.0,0.7230441705343124,0.5183727029685665,0.002519807290817203,2.501209124484977,0.6145166610401814,0.7230441705343124,0.8896646175534854,1.0512630853533333,0.8928581084221197,101.49636828295071,4.546365358227255,0.0,0.5595008598664294,0.40829267949171677,0.0009831656614080007,1.7995732797256592,0.49019884184264995,0.5595008598664294,0.6926356360438002,0.5643435176029082,-0.6060845025718291,110.76403156049057,4.649363827897744,0.0,0.5890166360135297,0.46736326241588777,0.00024500982999933665,2.196871240263462,0.4633319557056065,0.5890166360135297,0.7519102450138028,1.0275075592108054,0.4591013586861199,128.6340547717229,4.8104308170898795,0.0,0.8775498067776855,1.033352222450625,0.0013158195651047687,6.047751545127155,0.4835946861289703,0.8775498067776855,1.355695570184988,2.0178169044650773,4.238510619958369,167.4072521985377,5.074422596748188,0.0,G5
4.0677689733600415,3.45710808861037,0.008662257613946431,19.102106780262304,3.287947788051807,4.0677689733600415,5.33838372140537,1.358921714787304,2.138751929295017,166.24006684808438,5.069418367349417,0.0,0.5558585703956006,0.46728204553694336,0.0018366831571871092,2.2306004646132713,0.4120033866418058,0.5558585703956006,0.726175777868851,1.0777016162234503,0.5685363522933904,120.33827914512052,4.761410015225342,0.0,0.48317192162432004,0.3739372819227094,0.00028426428890733664,1.9311751784920244,0.40604186421204685,0.48317192162432004,0.6109698819564529,0.9213935292737299,0.38436424587746165,106.0324837358249,4.595930407675783,0.0,0.65379755952493,0.5679107262923873,0.0007255844541002848,2.595230081021252,0.4741982523010059,0.65379755952493,0.8660103012543794,1.267055892089632,1.1080976242969278,111.27603914763799,4.589170964378062,0.0,0.8649021000261857,0.9694855030066876,0.0004937788737215038,6.298152321930726,0.471917933874364,0.8649021000261857,1.2992142945526102,1.8865956625217766,4.209842500501123,160.7081021827583,5.039230448356846,0.0,G5
4.126550127524704,3.3031705928770267,0.0026962441625045935,14.87423981672561,3.422882036416964,4.126550127524704,5.285768810742834,1.013820767840578,0.5473283954848056,156.15926540286472,5.038257485475764,0.0,0.5113306554463583,0.42032408700280927,0.0003185504531934615,2.052368070516003,0.3876241259229173,0.5113306554463583,0.6619149320826262,1.0319272728517317,0.5772280845282816,108.52333398651713,4.640020662676137,0.0,0.520417986313495,0.4313143505586017,0.0006508214781033885,2.1634649697968933,0.40907578946105627,0.520417986313495,0.6759193365161124,1.1142020280561937,0.7659396917889696,122.0568291218387,4.759580165306673,0.0,0.6235195067672866,0.4916960465906546,0.0015697139964123336,2.438835454528747,0.4930322271938777,0.6235195067672866,0.7940664818213898,1.019287389655696,0.7350202397574681,91.63608093141217,4.475401975977283,0.0,0.8626260740268059,1.0279874301720098,0.00032702569586761515,5.658177491597966,0.42749963640535427,0.8626260740268059,1.341969411045778,1.7348148650992297,2.654365313425659,173.88283134787557,5.121080114258014,0.0,G5
1.8418951709310447,2.2875461593596746,0.000954448870217086,12.884672992057428,1.0545164874328998,1.8418951709310447,2.9369108348569757,2.358324607387677,5.6819724353053775,127.8025508457983,4.81150359660742,0.0,0.4783083776386824,0.35108258848646207,0.0009655764149385975,1.9136754502836917,0.41878477700419187,0.4783083776386824,0.5933278082626019,0.9720734304522066,0.8513500534502567,117.39118581389967,4.676231271245379,0.0,0.5211608920335578,0.4320611808818848,0.0014828249216225207,2.237522789873262,0.42143991696456173,0.5211608920335578,0.6769679013145766,1.2784130479348554,1.9831572843414973,110.04343716241209,4.651013035323958,0.0,3.688157763780281,4.2874559358170785,0.006938049887874493,25.674518096545256,2.433917159499025,3.688157763780281,5.655509357441279,2.755435725814174,8.439587631686077,159.90159346424767,5.062585013966708,0.0,0.23467134080009183,0.17505258159901693,0.0003079920537929178,0.8549549770683968,0.20352127588862384,0.23467134080009183,0.2927696099621566,0.8593197179559968,0.20877454336632484,124.11268204943775,4.756456289793061,0.0,G4
1.8553546814028246,2.29837137622245,0.013115794334037202,15.554654457788653,1.1074322572262854,1.8553546814028246,2.953786041141446,2.629097883853123,8.224225390038661,128.12408785597543,4.88060821789152,0.0,0.45011283957254555,0.35825661095417394,0.00020702574932056263,1.6270886974602399,0.36944154097866344,0.45011283957254555,0.5752819896715267,1.0560436605368506,0.7012064009158054,112.60363968130379,4.66506826630235,0.0,0.5612178332565426,0.4275388454012257,0.0004749093763833541,2.112649840326493,0.4551337005263363,0.5612178332565426,0.7055174843277675,0.9516192333212996,0.596910492143063,119.96128484962732,4.7323364149995735,0.0,3.7827006711695565,4.374370738932666,0.001964477356543405,27.765819293525773,2.3299317635405563,3.7827006711695565,5.783073899691836,2.4556587069185873,6.810599980753816,120.985225264579,4.8309883057246354,0.0,0.17903105139722783,0.13970982935328127,0.000617867639360713,0.6587125786843935,0.146549365673591,0.17903105139722783,0.22709239041042265,1.1068615088746658,0.8749479553651662,132.7018745833273,4.842772735916558,0.0,G4
1.6618396963341233,2.179605675943915,0.0009705972407016645,13.962086505628784,0.9790827271625049,1.6618396963341233,2.7408743274580867,2.903921682091842,9.569552986041089,136.93258798589653,4.893798529917332,0.0,0.5186887447300607,0.40866927848159346,0.00016173277168756578,2.0185517517529368,0.4270137981220592,0.5186887447300607,0.6603397557956905,0.9898144629444645,0.6823470578195745,118.2719427629018,4.740604960435062,0.0,0.5885061696446392,0.49043235354003045,0.00016553999918646548,2.7561559604715598,0.4768280973683204,0.5885061696446392,0.7660701045652534,1.5407807940240885,2.8757088109199183,96.28042723081367,4.512604760982828,0.0,4.256142693484565,4.754790708439361,0.008286388229266615,28.66967114949545,2.8725319035249797,4.256142693484565,6.381440692223296,2.4687198814969076,6.865006846522954,120.250377255772,4.835758475386074,0.0,0.19675731246038863,0.16355960498174016,0.0002284922792282929,0.7640376481590185,0.15089866325286797,0.19675731246038863,0.25586165087487783,1.0207781431127692,0.4144728046224846,138.996802938825,4.903544955922172,0.0,G4
2.6658318170759463,3.149983067794129,0.0029838319379021424,21.580384071074338,1.5296686620671984,2.6658318170759463,4.126627267433316,2.574829547776698,8.468095192398781,168.5273704007876,5.156325633668515,0.0,3.43966704185231,4.954289390508641,0.003689550632508972,38.76931944075069,1.6325598886768464,3.43966704185231,6.031276210198924,3.192346103779451,13.454765672776514,134.2754541070102,4.955828766696929,0.0,1.0401712469369964,1.0208979248392862,0.0009417205519018611,8.275639667352715,0.7466141502133641,1.0401712469369964,1.4574597064398134,2.6729147682947914,11.371308174450627,151.53837833185958,5.018742688734126,0.0,11.127509590140575,10.986918818862863,0.018049870610832935,76.98272999654961,7.598681483368814,11.127509590140575,15.63757829112147,1.9060261667779659,5.107062475627416,111.3880208292007,4.7169062792787075,0.0,28.76327639005214,30.158439675362455,0.045415832408263856,195.78985212347087,16.686140589835375,28.76327639005214,41.675622998858785,2.080957319651448,5.627140498803332,173.78425090673167,5.160442355933261,0.0,G4
1.1300178467057438,0.9361761079737817,2.8756508326222702e-05,5.494045878294513,0.9237971363174003,1.1300178467057438,1.4674351907373706,1.524973192629713,2.658708266512809,121.05835044231965,4.790878946247343,0.0,0.8380432165167144,0.7020911161637449,0.0015572820422956792,3.9334624454324323,0.6402918118059377,0.8380432165167144,1.0932741504973644,1.2159872021071882,1.327227676869768,121.1216345395841,4.7548733054758054,0.0,0.8975669738601885,0.8101538283350013,0.000770095871729817,7.348133456197835,0.7415236046456317,0.8975669738601885,1.2091218706691211,3.032687282459498,16.695149678520085,121.78356654403838,4.777732875388556,0.0,10.792392874891478,10.548764678215706,0.005417977585638358,57.44952016006022,7.265946153201196,10.792392874891478,15.09146050594109,1.5926755052322734,2.511972062779847,107.93820963155102,4.656914292751154,0.0,36.5246896459608,34.93567985732267,0.04522228631062952,201.16459884764592,24.220190248578376,36.5246896459608,50.54260263210727,1.7057127715705886,3.109623404342341,159.97539629953081,5.061148076584132,0.0,G4
0.8012300480660023,0.6400433262291018,0.00048782283455214674,4.4619931244558435,0.6718298158457695,0.8012300480660023,1.0254877129318813,1.6900591925659312,4.8884004636819265,118.25215095891099,4.7251216934011175,0.0,1.1291673821700552,1.7525606462095,0.0006828221779267285,16.59388799912053,0.6380536679710929,1.1291673821700552,2.0848232048783024,5.25332761130032,35.250629578981034,119.50071462997212,4.953938838052704,0.0,0.9083503236727438,0.8424039540517665,0.0007059540370567621,6.142954128790068,0.6877394002040518,0.9083503236727438,1.238848147400814,2.1585661611846896,7.2615712261299805,103.5835866760402,4.643707978905431,0.0,7.899911750907427,7.573091187612202,0.00970626874078924,43.60280537062711,5.322076236241543,7.899911750907427,10.943505645268104,1.519783612700614,2.6605826747591577,116.61255468619325,4.73847534376175,0.0,37.74954590888499,35.30070926687361,0.04616251282359496,171.98669137927325,25.398785511563375,37.74954590888499,51.68334636100251,1.4845782232749951,1.9430298034714042,173.73462678419384,5.140874890582459,0.0,G4
1.3703661335766955,1.1045471648259313,0.0004554579249426404,6.459515260528959,1.1657412866061523,1.3703661335766955,1.760093116678474,1.3341480854305479,2.4957135250215954,101.85727454807159,4.568325072115719,0.0,2.0172926565944787,1.6886985896766855,0.013483785287277818,8.110298815555398,1.4803047139170384,2.0172926565944787,2.630812153903436,1.0626533856727598,0.5551678309604209,97.15224602444393,4.425870575444971,0.0,1.7277983662226069,1.3723098055713563,0.00138069312585868,6.450518968419759,1.456163428103832,1.7277983662226069,2.206472614103516,1.0852118792423033,0.888352679551335,96.77074295249777,4.487587667951349,0.0,1.2189765709609723,0.8608642244451603,6.213010776143224e-05,4.774180544704235,1.086515991536674,1.2189765709609723,1.492310655822486,1.0749443364225457,1.283021376850214,102.85316268416506,4.563400237279727,0.0,0.22829543774966227,0.02567338800845059,0.18127280613850189,0.269409183171796,0.22976481135668886,0.22829543774966227,0.22973447662277938,-0.13675895219552348,-1.197685512709879,50.05853594603716,2.076920258036245,0.0,G5
1.5290955205970154,1.1969008878677851,0.002639617503008753,5.893488366463608,1.3208650795128962,1.5290955205970154,1.9418302826170337,1.2900316241211616,1.7031280716641382,108.24162614607091,4.601710292954277,0.0,1.5870832986664476,1.5345635204060109,0.0036230336002144835,8.851260990952428,1.1352489809042392,1.5870832986664476,2.207650016435318,1.8038232348036316,3.591477560851324,103.66609053354568,4.633583753140343,0.0,2.221957848989394,1.5714323935497478,0.0028023339690890284,7.439219023855595,1.9044519308749446,2.221957848989394,2.7214879110852332,0.8305730640778545,0.032317945676139104,76.80680578917458,4.240714109191119,0.0,1.81264261097041,1.4156822615686906,0.008404992807901634,6.7854663708079395,1.4874206747776078,1.81264261097041,2.2999629346634842,1.0268948514009992,0.653733624041644,115.91172591204813,4.649288221469944,0.0,0.12750487673623412,0.03153363462771961,0.07239285758092683,0.1811583430138047,0.12791775910798284,0.12750487673623412,0.13134635017524002,-0.02958863792071043,-1.2055270949801722,81.0287631143483,3.0613720045656008,0.0,G5
1.1973434392186888,0.9491936438589195,0.0016471922465135895,4.153294335190113,0.9727889783423325,1.1973434392186888,1.5279397517514268,0.7239478550254752,-0.4197869215857968,95.56265370904127,4.494278324303397,0.0,1.8395470358667587,1.2806472252220167,0.00022273170509314353,6.239956332565436,1.617904473318773,1.8395470358667587,2.2414260221196303,0.9041634556322686,0.47223119864044705,80.69464270221897,4.307718318588501,0.0,1.7980943273319523,1.3413524388045017,0.008226369531366497,5.8937566540956166,1.5494316761447844,1.7980943273319523,2.243294357651294,0.8152792478948618,-0.011113070114003865,90.81967707504606,4.443062993917619,0.0,1.636045108371413,1.3632127725084122,5.471969765245832e-05,7.275836832529869,1.3397558933237712,1.636045108371413,2.1295522204811275,1.3444171409143935,2.135500040981256,97.26821881769129,4.516770009935058,0.0,0.02954644392891229,0.020054465411015816,2.898434064782034e-06,0.07226695849672984,0.026065232308968317,0.02954644392891229,0.035709577591536805,0.48504889303748483,-0.8627586654936494,89.75684477079801,3.4276107669550386,0.0,G5
2.360379934193385,2.107897922612108,0.0037004669676083957,13.767436058578106,1.8859721077047933,2.360379934193385,3.1645895604162018,1.9398309752871392,5.527095069001341,108.29383594889502,4.664381507565726,0.0,2.668235737050098,2.146117118438441,0.0028196642902464375,10.190414543230231,2.1488455017962194,2.668235737050098,3.4242226321496387,0.9805815859781366,0.38773246440785014,80.74641140863295,4.2925034532124755,0.0,1.892284835749297,1.3877178259838718,0.002221482550703223,6.920494153405018,1.6931341380392757,1.892284835749297,2.34659384303295,1.123560511608783,1.2288768534548735,80.0912833153654,4.255572261875844,0.0,1.481493087338593,1.1966687555898066,9.757620385670088e-05,5.702220167197125,1.20143049355605,1.481493087338593,1.9044258658285684,1.1035294456634555,0.8169929831838201,103.59463404586944,4.5901178899166135,0.0,9.64251971195831,15.111291771275457,0.018974183268565543,105.27977880648055,4.635403143812261,9.64251971195831,17.92566108661329,3.313513882699798,12.218864820286102,143.1059851295317,5.015856501707201,0.0,G5
4.4915237079580725,3.857853311970995,0.006622597156158455,22.87670742073,3.6448420214510473,4.4915237079580725,5.92087978224816,1.8627135904372873,5.069338707874207,136.14870895503446,4.9182565262986975,0.0,3.0097280845021137,2.102801271682926,0.0029858347044724844,9.714528854682376,2.5547364013955836,3.0097280845021137,3.671544134397964,0.8084337470613234,0.061920682875561184,106.43289899719535,4.530016094686416,0.0,1.9872699361874366,1.54245156389835,0.004961987283176296,7.773443291479986,1.6353242101183336,1.9872699361874366,2.5156308604894484,0.8221245157718341,0.04593188572916862,108.04468967901464,4.612434894526531,0.0,1.223168237448047,0.933705958958243,0.003204835325762989,5.493063275579841,1.0469890247745592,1.223168237448047,1.5388136192846404,1.1323354382471513,1.6766654639888232,129.39785080996296,4.742604872165687,0.0,24.12834227648448,29.583278659547368,0.0487473553824016,228.10113910738863,15.18318130041175,24.12834227648448,38.17521810362869,3.2773048134101033,14.9044337697494,141.58087094889993,5.030019460901827,0.0,G5
2.615699089036279,2.7977374554606604,0.0009986095201077426,21.4822607377187,1.8315050228319756,2.615699089036279,3.8300413305958867,2.4831008424222887,9.053988102048578,154.774937238957,5.071852509044253,0.0,2.1548089658961653,1.5789043935344178,0.005146805693265826,7.188678565075236,1.8777135084604633,2.1548089658961653,2.671355604076101,0.6965714576438866,-0.15579319826352878,111.04638327109355,4.541238572160851,0.0,1.888038607191026,1.5236667542125315,0.010934512714231487,7.200671401249213,1.518342838842127,1.888038607191026,2.4261595496043493,1.0779126975731363,0.7062091336905434,84.43721411912173,4.360717240786538,0.0,1.1896046789409256,0.9208437875679505,0.004869674736096931,5.221246297784153,1.0186975984827855,1.1896046789409256,1.5043645081098636,1.3247616116752616,2.1099792559667963,153.55786494639497,4.931412609878374,0.0,13.635255547975122,18.805695603784645,0.0218758187727916,120.28745791713115,6.541252634511752,13.635255547975122,23.228740409260062,2.8023625097372427,9.010183870992574,148.99009251931594,5.047342856868527,0.0,G5
2.3805982945549164,1.7731237322635904,0.0009069723736351773,10.420164939746313,1.9206508120550472,2.3805982945549164,2.9683692509447237,1.4614668291993806,3.068601791850429,89.08177207429544,4.4575418033720435,0.0,3.2106269418563107,2.2053668028114624,0.005819742878691234,9.774900596648559,2.777358289463199,3.2106269418563107,3.8950953896812917,0.654848059747435,-0.40577044664622575,80.56265525011555,4.304568491145825,0.0,2.6778288727661157,1.8894005174536934,0.0027271687738644954,8.966517873236066,2.248696820324602,2.6778288727661157,3.277285734746687,0.7248498196398822,-0.13756901167529678,98.42877702849604,4.452008566047705,0.0,3.218576911812629,2.4659823147917237,0.002668643569582685,10.458392260285677,2.5609692039573924,3.218576911812629,4.054664735106821,0.7013148398274576,-0.5132067828440334,105.28693329429775,4.520812916027405,0.0,1.7388572921057825,3.118671239975203,0.0003202022874708966,24.184614550199225,0.6860307347329818,1.7388572921057825,3.5706771046060615,3.6193783745168386,15.265266396547709,142.8372766128641,5.038724466798739,0.0,G4
4.693435321399838,5.9421465992951426,0.006539977604444663,50.04367972051706,3.2098216364964705,4.693435321399838,7.5721490558281035,3.7388105923614687,19.328376689953956,110.25711047471638,4.752724054208916,0.0,5.096562902011079,9.38696462013316,0.012346754664059947,98.17460962774928,2.94450093615177,5.096562902011079,10.681294780773877,5.775009413107229,42.773778255087116,120.413130481693,4.942702286367226,0.0,3.386235999764969,3.008089727638281,0.0017545649982791817,15.29495748740903,2.530863798811243,3.386235999764969,4.5293706025922855,1.2457406592742404,1.373619225054207,104.03803559889509,4.591093631655225,0.0,2.9451834540906257,2.1110440895560614,0.004905985310950781,9.606642383536206,2.552351862986992,2.9451834540906257,3.623618733572666,0.8830598762755273,0.365184982049791,75.99202869624303,4.248458779462433,0.0,3.396606685443184,4.816232350037096,0.0006422831005711144,34.23671766830141,1.2945298702069774,3.396606685443184,5.893473595863578,2.582750519734928,8.350952664783252,175.5899694904239,5.221396685704594,0.0,G4
4.3081359571273845,4.876246017271584,0.010014585442343168,45.824576931156756,2.965945963385007,4.3081359571273845,6.50675115906939,3.7461992824001857,22.3001147560516,127.60737735426352,4.8779120999118595,0.0,10.477037895732883,12.738935247579601,0.024659787472067533,84.71059017390704,5.450329000040609,10.477037895732883,16.493901730962534,2.2980717278391167,6.140372359089202,130.4208001482586,4.915276443613287,0.0,3.3793199491434875,2.3724095284459237,0.005613505819583961,11.681905360442967,3.1712755413457114,3.3793199491434875,4.128938155184714,0.7840498846983878,0.20833217109517665,116.18805212814188,4.652209882490502,0.0,6.127362701752357,6.397917311560239,0.003935924981468483,32.332877794881675,3.455710620672563,6.127362701752357,8.85877641688671,1.606515748581673,2.541063904654118,96.52773057084458,4.498597201249566,0.0,3.637984741492295,4.309158019850028,0.0013192793443794482,27.953331586194057,2.1798661448754033,3.637984741492295,5.639483648293395,2.272341278701855,6.629280907660009,184.79479394260454,5.259491998113755,0.0,G4
2.3515370455530897,3.0358536260496063,0.002307759219738874,23.3900627541859,1.4814483036395076,2.3515370455530897,3.8400694935648105,3.4187942329500784,14.862280157925742,100.52387420122936,4.706434492981633,0.0,6.179840190706332,6.890936671448517,0.0007402332638775655,37.799559972116164,3.7614636308448333,6.179840190706332,9.256102473102988,2.014016175939782,4.144053214016362,160.43829259866627,5.075337527587509,0.0,3.8867885537221634,5.189521953626741,0.001745737135600528,49.60153944760884,2.4322273686543596,3.8867885537221634,6.4836921093247115,4.3502469957602425,25.940895003684975,142.68642668347013,5.029647427780365,0.0,2.2867186501840226,3.8124573852187544,0.0015967020923363159,25.129275153081426,1.1370654891719805,2.2867186501840226,4.445662324019725,3.9601744103697794,16.891630884246506,119.34307439947197,4.831671431042521,0.0,0.18075210531230146,0.157597364253788,9.617093950923389e-05,0.9597542131247356,0.13092567558888618,0.18075210531230146,0.2398087838144601,1.4980917399816112,2.7313431409587086,138.1303658662004,4.905926716616434,0.0,G4
3.8283817126481092,4.108001899536554,0.0049066865203371,30.368326592107287,2.5097840210835893,3.8283817126481092,5.61535271771368,2.621891221813491,9.712847072813751,121.47439738660586,4.783490943461848,0.0,6.95279159064682,6.59852313102542,0.004475468521888848,45.77949713214992,5.026040674251626,6.95279159064682,9.585500425833105,1.794450597635317,4.462157976414341,155.42335654046204,5.049250603520117,0.0,6.303426423085095,9.026257778411862,0.01259892594290523,53.5623421538754,3.0881703345789675,6.303426423085095,11.0093830051274,2.710402759409974,7.762442036690837,148.69944923753724,5.029791982981117,0.0,2.968148705630392,4.257226640598092,0.002001447696948813,23.325935273174057,1.4176368792844238,2.968148705630392,5.189786643798904,2.6578729560462975,7.015348952172234,120.53100873078083,4.8189545950807355,0.0,0.15723467722026116,0.1299740501097317,7.122095103197223e-05,0.6357184256797994,0.1258256066334622,0.15723467722026116,0.20399999368256547,1.0649792799231637,0.7724761982627388,143.41412488315234,4.955210261416514,0.0,G4
1.6698817846912082,1.6740670598306255,0.0018214876130320592,13.187274901364095,1.2772949447458533,1.6698817846912082,2.3645307559119315,2.800507389190394,12.597926093605372,106.07327908411484,4.695455883662078,0.0,2.467135753694433,2.743888448275622,0.00022504858182675197,21.509655685959213,1.5332290894319325,2.467135753694433,3.6899434472275856,2.4586549410664533,9.28803841313017,161.58067892673677,5.089988509821546,0.0,1.9370773568524735,3.66181497709242,0.0004383782713716358,39.57262569577839,1.1562214133067519,1.9370773568524735,4.14260275827757,6.744200640414497,53.96217727061627,141.64325978513241,5.081187584703087,0.0,1.0759067513042173,0.7963090913757838,0.004998845498240199,4.069279361789876,0.9111145529019063,1.0759067513042173,1.3385378240863128,0.8897082245193328,0.46381072696284553,124.95380175415572,4.649230184909721,0.0,0.17101316883110462,0.15756530528054935,0.0008606831159527779,0.842483429049413,0.12778732214475097,0.17101316883110462,0.23253457665863073,1.5108631033403868,2.1318175367038306,147.26244714180862,4.998646890945089,0.0,G4
1.045128119234935,0.7808375664712002,0.0006761611825771702,4.737503048062742,0.8770264957866232,1.045128119234935,1.304607255394595,1.2568877632727042,2.2182767148139098,126.34410827117726,4.801541048963251,0.0,0.7806959000629071,0.6370521523659521,0.0010695688342996267,2.898566884475663,0.6584346699765797,0.7806959000629071,1.007631645597301,0.8788388486405683,0.00966765816332904,113.8035204870699,4.6330535618166895,0.0,0.8577585554169477,0.6722923183308451,0.0004414830013317137,4.473599966783367,0.7049973946866832,0.8577585554169477,1.0898287483259153,1.626011516258842,4.303058857230692,105.98842101237292,4.595260677249722,0.0,1.3817084351472817,1.1104893181091153,0.000982769077164311,5.196719805597243,1.0978070538921707,1.3817084351472817,1.7726547112710918,1.1048022543798943,0.8034058055147986,100.05984325274771,4.54806389988283,0.0,0.08715289800829511,0.0669819560422021,0.0016446020129285066,0.5855036243226445,0.07282453042547679,0.08715289800829511,0.10991910692178947,2.865203405870885,12.89022745377253,158.3540250894985,5.019441969646014,0.0,G5
1.0728477552684812,0.8977149839393446,0.00019209201307383394,5.311762934824819,0.8662259157204026,1.0728477552684812,1.3988904525994292,1.3407389579279312,2.277094746198716,103.49457936102058,4.5801023502000735,0.0,0.5392205242496869,0.4938503407630656,0.0003090362916232088,3.0562658870863464,0.38545893655636615,0.5392205242496869,0.7311955503447098,1.8022910607814415,4.622162437514493,110.8679243711099,4.65911817501946,0.0,0.9320427987616938,0.72369232789749,0.004725739164846808,3.6640492388660646,0.7903799246784287,0.9320427987616938,1.180014561003897,1.0678557548751442,0.9886612706200086,106.70164084339281,4.611767129563697,0.0,1.2552715310854083,1.0020055060274975,8.204539067743072e-05,4.739969616401096,0.9968283932261094,1.2552715310854083,1.6061511917820586,1.0306206021126951,0.5571288984345255,123.23578188029359,4.7417273435648335,0.0,0.10150075998009496,0.08845468402957275,6.296119366128023e-05,0.4417380122147916,0.07272952993386922,0.10150075998009496,0.13463519377676997,1.6014852425209165,2.315710044208517,134.12890829765655,4.8478641245443965,0.0,G5
1.1165118588282659,0.8789560963766893,0.000393159110518234,4.655515646246341,0.927795950809118,1.1165118588282659,1.420972396023898,0.9821226246017725,0.7108201221210693,118.30050554106778,4.680753671956357,0.0,0.7972266717436499,0.5992791453294758,0.0011930648291682778,3.2590537577562806,0.665676115173284,0.7972266717436499,0.9973494172887877,1.1551561030211825,1.393167098891258,107.87275033435728,4.594883386821272,0.0,0.9586160574459605,0.8025503064228581,0.0006124769126971668,5.361062976785281,0.7858631238873683,0.9586160574459605,1.250212677880312,1.7160455989145078,4.71979242468438,103.9612973517829,4.573191407179745,0.0,1.1679878218468502,0.9417801161219368,0.003697741530007355,5.874134518455928,1.0047107342685169,1.1679878218468502,1.500381731128848,1.4011431819382434,2.7932287849550006,121.7784516848995,4.7787179214990205,0.0,0.07026733301529922,0.08585320169472581,4.210413286614024e-05,0.6934525362466328,0.043985629962866125,0.07026733301529922,0.11094264432722988,3.574990499619142,18.10367809445648,120.93942532765682,4.837701838098845,0.0,G5
0.8858744258643266,0.6524649524951392,0.0009045482076245719,3.613118735394144,0.7984400659297934,0.8858744258643266,1.1002199837464028,0.8897260936273678,0.9106405750006008,121.20451808692032,4.73142450750472,0.0,0.7075203621578031,0.6031345029635516,0.0021083701571470827,2.894297524068576,0.5509018862588331,0.7075203621578031,0.929707637665196,1.2523293786491179,1.652756959109551,77.9655220367743,4.291092064165873,0.0,0.7234159753475312,0.6100067816200181,0.0007770928896314372,2.8588590524267925,0.5686021228423878,0.7234159753475312,0.9462763586872665,1.069248174035849,0.5582208625302743,115.40289833160546,4.6714205445169785,0.0,1.0834566487681896,0.8155192420993008,0.005354023829873107,4.138947306278916,0.8514165082488321,1.0834566487681896,1.356078885608877,1.016458281879732,0.6435518411236716,101.58356185530556,4.576363560187489,0.0,0.09591508071549981,0.09625696039326107,3.52380783385604e-05,0.7242896720507827,0.06640451977366638,0.09591508071549981,0.13588636845839497,2.5018355789980196,9.305309693212513,131.08198209897506,4.889704051300531,0.0,G5
1.0055810929449975,0.8346718572342271,0.0018697510067882204,5.120104981169181,0.8275908884636691,1.0055810929449975,1.3068551732105933,1.7044448389743028,4.336400549671171,86.40779559232335,4.40165623499082,0.0,0.7495207740925796,0.651926540876655,0.0011905187317676758,3.386652955915233,0.5765381273998946,0.7495207740925796,0.9933728431438724,1.3376830138843363,1.7761196389716511,100.18880686677643,4.598393931134579,0.0,0.9319914594788651,0.6151516574287587,0.00047776809116807303,2.7471087219261685,0.8442448491256436,0.9319914594788651,1.1167003367864154,0.5071995733521509,-0.5297027857071837,112.61344646632193,4.628972359813892,0.0,1.2420955481939535,0.9425430522500106,0.0001439114604795399,5.121303524027981,1.0382038131310471,1.2420955481939535,1.559226973916243,1.0468994194071355,1.1307065946024037,98.32820366834169,4.535795451670399,0.0,0.08158484247210095,0.07794445138726083,0.0001422749817424037,0.49707053281903557,0.05999998585231357,0.08158484247210095,0.11283361211650807,1.7628428319631273,3.7381315695578756,136.25952981040328,4.896275058289037,0.0,G5
1.010736506270462,0.8655148597268506,0.002416662817044918,5.125492231194472,0.7803510322980342,1.010736506270462,1.3306781194247577,1.3930797574377713,2.3326425636150994,101.20073637079378,4.545508381589789,0.0,0.6933110736711211,0.5427295824827604,0.0004439249703098204,2.501717930200445,0.562734405255091,0.6933110736711211,0.8804746700370852,0.8063223336388768,-0.10581268497875529,101.96820545731472,4.555958205977852,0.0,0.7277511044003891,0.5811937208128946,0.0002514175213667036,3.7030576516245075,0.609517252019786,0.7277511044003891,0.9313473095834459,1.4224816448874869,3.0219446177704734,102.34884371687765,4.598530366268634,0.0,1.1922489589142065,0.8751106347247736,0.004659925762477666,4.792214239757525,1.0515138589768047,1.1922489589142065,1.4789442866586981,1.143026365112532,1.6064456238094484,95.19199120797892,4.483732928079575,0.0,0.07563521240064842,0.07182170074051128,2.553420107281835e-05,0.36037118431973786,0.05240415796908256,0.07563521240064842,0.10430264642927695,1.4451379138557647,1.8057407934238103,137.37327843108653,4.895114032773091,0.0,G5
0.9722194276781473,0.7620204273586356,0.0005722200312564597,4.45026201329905,0.7908577328482432,0.9722194276781473,1.2352674800490222,1.188865567321277,1.5848823341258411,129.48717384871657,4.8457767014482105,0.0,0.8996684536715098,0.7645221081962835,0.0036008232612128616,4.010594154184853,0.6885633804469868,0.8996684536715098,1.1806343127541972,1.5507404525536383,2.413547878640535,116.97068254614186,4.676088743795615,0.0,0.8758904886802127,0.6664877063068055,0.001854390784718224,2.746680295077336,0.7293319339596529,0.8758904886802127,1.100631641748759,0.6611518645207329,-0.5568567443172325,105.17649251725045,4.576077131746389,0.0,1.5361550849614396,1.2228526419123908,0.0009383547696248246,5.184341780238861,1.185088521725393,1.5361550849614396,1.9634513054529776,0.8298282590819421,-0.09726667272297451,90.69616300489636,4.407184411884813,0.0,0.19244973490453385,0.15257413561737587,0.00016244067196118008,0.8160112139663162,0.15864093250883815,0.19244973490453385,0.24559268581172108,1.0202282816129595,0.7791603398422406,147.99176456458895,4.97477207577973,0.0,G4
1.075374324141349,0.8608260699932702,0.0027201095002217183,4.749823053957194,0.8791840576950336,1.075374324141349,1.3774801123074416,1.274649189011286,1.7347997493061635,111.34861002461463,4.685383170309573,0.0,0.8629798767966709,0.6787052008535194,0.0016483321145221615,3.3128896888374193,0.6917978546710993,0.8629798767966709,1.0978957224716805,1.0742233148692992,0.7616062818895397,124.06496208188472,4.74312308669486,0.0,0.7472864860526567,0.6557146118284517,0.0014475908218262654,3.4126086747190225,0.5544044322747532,0.7472864860526567,0.9941824502586356,1.2144033436454786,1.2441395526367138,115.32385263332519,4.67412558334658,0.0,1.1262280104045794,0.7894554092433161,0.0023633523306873707,4.420355850995401,1.019355524952494,1.1262280104045794,1.3753651786356194,1.0894790971813764,1.457475989555011,97.76979668674055,4.456828992078926,0.0,0.17941279044589079,0.14357956918151382,8.383426166109695e-05,0.9430479814226711,0.14797340596836872,0.17941279044589079,0.22979130110152177,1.5454888883495446,3.4011813928272687,154.26211335003745,5.021083560569229,0.0,G4
1.311657383254249,1.1627839555606536,0.0013240720346230986,6.737668566697779,0.9004408279480682,1.311657383254249,1.7528581284161773,1.3449036769315434,2.0114779968489858,117.02093350937865,4.687531826945543,0.0,0.7608982131687435,0.6456706210626789,0.00037971467571335047,4.131152124050634,0.6086635771145235,0.7608982131687435,0.9979261704689641,1.7075290010581428,3.927781688659957,132.06005976031898,4.8364238787435525,0.0,0.9176105970533408,0.7341236564982453,0.00018068221479039526,4.386281376724873,0.7663620581045304,0.9176105970533408,1.1751369072814206,1.3082179771326843,2.3968517224558505,116.95084830632481,4.715620704259071,0.0,1.3383871624145969,1.0919904952454489,0.0010610133436397655,4.934961581112794,1.072239621066197,1.3383871624145969,1.72734577841919,1.0190126872082281,0.41211536302641694,90.34041160509116,4.492936949321539,0.0,0.15582497283568858,0.13512107016939623,1.6622981959441766e-05,0.9916747291676784,0.12292191263005889,0.15582497283568858,0.206250153364709,1.8054718969005812,5.438035057405095,191.77338793749456,5.234860671641926,0.0,G4
6.353959294395705,6.677163741716914,0.0017566279431639742,37.05200459791705,4.024255582187736,6.353959294395705,9.217229212107974,1.8667629186118189,3.9712113140250462,140.4939674927117,4.930030692220055,0.0,1.822668058823346,1.6225221711476197,0.0005757143920166741,8.539568515956084,1.3783422040911462,1.822668058823346,2.4402247946696325,1.410167842511504,1.823102349221184,114.9501773628622,4.700974146596585,0.0,4.305608345735747,7.479978016665086,0.0010856663672058516,59.444889724180385,1.9642743514571754,4.305608345735747,8.630662451785627,3.674852821142803,15.688466146646881,149.37297868603264,5.079709456302844,0.0,15.760781395741887,15.38418389049632,0.008030171015847298,78.7005213861311,10.443323594542953,15.760781395741887,22.02442608062626,1.5306983843381168,2.022394660613566,114.72017762758603,4.694433439639884,0.0,0.9797389002774107,0.782369689289246,0.0002746681376511618,3.8951228660976946,0.7572721919116623,0.9797389002774107,1.253790510187145,1.0460358764288857,0.6599877235762412,95.46375949118062,4.4814132607125,0.0,G4
4.3135595235441135,3.8382098103390487,0.02711532225015159,21.557820054157993,3.1801344099453215,4.3135595235441135,5.773963137338256,1.482090185006969,2.265709039905289,149.1364019003832,4.954840945519021,0.0,1.6754687964230575,1.6228975110830575,0.003510494159161237,8.724261516655671,1.202400970231781,1.6754687964230575,2.3325934106198,1.7983606887067187,3.282468352051673,103.8744119744708,4.615845733986425,0.0,2.3900673674463997,1.5849093770840326,0.001040380653921355,7.360820526367983,2.0529923428194756,2.3900673674463997,2.867814456079936,0.8123246823485099,0.23022953356574716,98.07907573221067,4.294123751060066,0.0,11.811535923705083,11.297184970748404,0.0069519852590623765,64.59947340265477,8.64162116230102,11.811535923705083,16.344380353512314,1.8980889134766257,4.349646335592097,114.64340837744717,4.758641766197496,0.0,0.7228164954169879,0.575553149220283,0.0008919040477095566,3.3308981663452504,0.5873732399699174,0.7228164954169879,0.9239724636720955,1.1348633312764267,1.408510739195484,105.99610578737882,4.634048745808969,0.0,G4
2.0645055899133764,2.451204680982461,0.0016457232090287266,18.644219143361877,1.3275931046572187,2.0645055899133764,3.204775767328177,3.01564265117733,11.841134530824014,147.5080987784074,4.989778195744301,0.0,1.534082663375201,1.1167217261949416,0.0003875467731837799,4.609611171754744,1.3521212019330107,1.534082663375201,1.897492300860312,0.6630036340945775,-0.3771859740755241,84.50341547071673,4.316373615259402,0.0,2.6659395033051476,2.4955283891054942,0.002159600980845884,10.19278175824326,1.799793374620094,2.6659395033051476,3.651697601953694,1.1151858578921683,0.33433504411394477,66.50819049360521,3.973198403349175,0.0,4.165449877025219,4.331124020777044,0.01200220471892495,28.500741401253205,3.114166615394754,4.165449877025219,6.009127054852587,2.522555665016584,7.868461773917069,113.63331168166081,4.702584128871088,0.0,1.0421715943695786,0.9096322373622451,0.0015307945304743765,4.969456469018565,0.8122914344415453,1.0421715943695786,1.3833121265135622,1.3330203049526181,1.8911021616619568,93.0399784413014,4.500665365556935,0.0,G4
1.6944070469664456,1.5831575422335544,0.0034643007804181745,9.495259250308926,1.2055000789223818,1.6944070469664456,2.3189228198326353,1.9537980308723513,4.817419590138047,157.82574547776014,4.988754613345277,0.0,8.197715452630634,10.265684987009209,0.005784774644480795,83.05049103164097,4.8370714472792535,8.197715452630634,13.137230564118349,3.1339958921417823,13.822617546373113,140.1855163471024,4.984006250091435,0.0,2.0685566022090933,2.088264645179486,0.0020688351002742513,18.018658386444024,1.6559158766553796,2.0685566022090933,2.939349527505947,3.4164862258550786,17.62522416264609,114.05795873020142,4.768703139145741,0.0,1.8469985631528345,1.5064192898779623,0.0022406405604112924,5.9885094928634,1.4866199281827115,1.8469985631528345,2.383422490706392,0.7443256299349469,-0.45721786662848407,82.27284801618305,4.309272586666542,0.0,9.809326871747121,10.244834326104924,0.01725398401296087,63.46223391950339,6.370300025307374,9.809326871747121,14.183776790619552,2.0272873943801892,4.9347889289863325,171.10964885887174,5.1283621145880645,0.0,G5
1.299018348627073,0.9936963217851266,0.0022666127615256423,5.470770891159612,1.1204096656632878,1.299018348627073,1.6355063588990102,1.1580545705969403,1.7065057404355448,82.85951802095944,4.383830260631317,0.0,3.8161585062596086,5.17264129292657,0.005411091184328247,30.482211331837007,1.9503051929113742,3.8161585062596086,6.428007754365782,2.5293088279516374,6.317915930666903,138.1051729941349,5.007675911365334,0.0,1.4265105477265474,1.072797494527464,0.0008931048120790416,4.72328407760977,1.2085103697922455,1.4265105477265474,1.7848884578705468,1.0120532547531087,0.48736342097631447,102.44854615848902,4.548152139886415,0.0,1.722877004052844,1.2879053802811515,0.0017354874901544873,6.442508533525055,1.5608688992027535,1.722877004052844,2.1510475214767433,0.8527724768691037,0.45035115041505147,108.14237079526261,4.576037345520682,0.0,6.500643097856442,7.997112857348428,0.0157097388809091,56.29593505475094,3.7231405991810265,6.500643097856442,10.305929106047458,2.6380172947316898,9.156787592829554,165.84904602332213,5.14077300711102,0.0,G5
1.4479062701963799,1.1268238750642787,9.816123254399994e-05,6.798065670885619,1.2096839964395412,1.4479062701963799,1.8347110433768228,1.4631684585019025,3.3058715726290178,88.83836486478928,4.415610320003377,0.0,1.856663142324584,2.5238600182134716,0.006193068984640782,22.281422159936934,1.193010824554923,1.856663142324584,3.1332199756166346,4.632903740136468,26.822181591027324,134.04067212778463,4.9688621851366825,0.0,1.2087419212547057,1.0183816026017405,0.000631603566557136,5.665063298392936,0.940086321152541,1.2087419212547057,1.5805562693925852,1.293505591851344,1.9615162459943445,101.1104774980477,4.494134295103994,0.0,1.6096275493997176,1.192340281493816,0.0021879681484599754,6.293560902816725,1.4382320676162026,1.6096275493997176,2.0031415812815863,0.9560978397602545,0.8677215075558249,102.51535588946841,4.546884938788434,0.0,7.210222778127412,7.757859976143431,0.0034371713060912246,45.987463175322596,4.573972208235629,7.210222778127412,10.591114385166252,1.8303140287875708,3.7363626963044547,185.69575769840827,5.228692207116802,0.0,G5
1.73290553487847,1.4555725460389828,0.0007446299365080748,8.778343992680858,1.3208120967241879,1.73290553487847,2.263106941705328,1.3280504129956745,2.1943957735213644,111.62559785195681,4.635179148300713,0.0,1.267927766671467,0.9971585824892226,0.0014770297973628471,6.297341413692054,1.0072136075619085,1.267927766671467,1.6130610838180959,1.1291877027676884,1.571811076495214,122.3912360431291,4.762102962798639,0.0,1.7691345776321146,1.4503024973813199,0.00022386290191184557,8.514637625929435,1.4142251798314196,1.7691345776321146,2.2876220159117313,1.341978138452813,2.139257293913569,132.67527956519874,4.8748472475051,0.0,1.9924065385789267,1.4494644039619584,0.00012155366273187279,7.644271746536871,1.835246149621794,1.9924065385789267,2.4638650274162455,1.0425207729996893,1.4363117951938094,80.91693491190009,4.28756238930281,0.0,7.24612070556466,9.207866931756913,0.0065601861142205176,80.85517730522606,4.756574558044974,7.24612070556466,11.717127579426426,3.643222748203458,18.462495927336548,145.94993612233827,5.033882788383753,0.0,G5
1.552697294828673,1.1348704944639778,0.0014636039437778319,4.203879418046247,1.2390887155564658,1.552697294828673,1.9232264371553323,0.697605545128989,-0.5463433063171172,81.54252326478696,4.257401739776445,0.0,1.2502392159041256,1.070506672643788,0.00042028268890606513,5.512093699174796,0.9429990755816939,1.2502392159041256,1.645929109396707,1.185100258076651,1.1007939728892646,93.41205422204806,4.485352484549081,0.0,1.5947887042287126,1.2149848243655497,0.0020444637684655168,5.755216807423747,1.2254541109168604,1.5947887042287126,2.004878832890926,0.9343085945475541,0.3629097742586449,90.50583455293932,4.4598227511298925,0.0,1.412881317530759,1.063883396778802,0.0020800678951140156,4.793883309245824,1.1726069992406942,1.412881317530759,1.7686383178505025,0.916091032792883,0.28665641721300883,102.79646957493998,4.543693343417319,0.0,3.646369049221924,3.4959714655118797,0.0022509484880524414,22.781709736072024,2.6707216003066874,3.646369049221924,5.0515169732266445,1.86314796140001,4.997080740307546,155.94981222661792,5.05571115980023,0.0,G5
1.7177105774038262,1.8465809796279555,0.002546715399003415,13.84025073468421,1.2496863699725647,1.7177105774038262,2.521981550695549,3.3884654125308615,15.583076901398822,109.15502263787475,4.701471149521866,0.0,1.1435158348417127,0.8570060141150455,0.0016392915373827262,6.125085169948155,1.039916480229889,1.1435158348417127,1.429016365463705,1.552968174544794,5.147205940925545,109.2514056081183,4.624754614473379,0.0,1.3192285319517105,1.0818171321986934,0.0003720587739312886,5.184775517272388,1.0596897809102477,1.3192285319517105,1.7060750941954665,0.8616681606897493,0.11986259439105718,113.86583038564291,4.681230907003359,0.0,1.6424297020374916,1.2931810407909303,0.006167900069815047,6.272211381056753,1.3763308056501489,1.6424297020374916,2.0904287910369197,1.0700049417165112,0.7037438388094786,81.15958873058868,4.295326650824946,0.0,1.9061782007810157,1.9878380778953033,0.0006179779572528174,12.512525460436128,1.200651715794245,1.9061782007810157,2.754090695141183,1.8938584347216296,4.106454318190483,165.32602266205112,5.099118131305693,0.0,G5
6.823485506612298,6.6560106696812715,0.002730452136839534,33.69879089185724,4.304165037868464,6.823485506612298,9.53217879048956,1.6073292689066216,2.237250895583945,133.4006882597217,4.905650219899537,0.0,3.1420118907650343,3.443803719265797,0.0005498850946968545,21.130434983891668,2.02772232834854,3.1420118907650343,4.661761767673012,2.3011107253569847,6.174820186750662,147.85101090145565,5.026064975665028,0.0,1.9263429779229508,1.3386847697679023,0.0040149292467187014,7.002732750372607,1.6867207336972547,1.9263429779229508,2.3458205774103025,0.938795597858889,0.6895017690518492,86.55176665282055,4.326404117613725,0.0,3.2176225363273505,2.657055147678966,0.002201605885115393,12.702840616210981,2.6200314388430206,3.2176225363273505,4.172893102403768,1.1122527414752659,0.9396575283431967,72.33391857941965,4.204932809930372,0.0,1.4672274408821213,1.3756385711777168,0.0023063054356717884,6.768986684144647,0.918266566655481,1.4672274408821213,2.011252804047609,1.3246330649425997,1.3565743599868911,70.65651883624153,4.1720955984883075,0.0,G4
3.691651224974262,3.5666707726444673,0.004533646627640435,21.244755700706776,2.7085372821678977,3.691651224974262,5.133169505022239,1.7892578377348853,3.4929506447082357,124.66508100044355,4.816368711537009,0.0,1.9287354221152788,1.2932041322467942,0.0007522261648647988,6.664962574973618,1.7321105917035966,1.9287354221152788,2.322153581523493,0.7698081264951183,0.17105534841562875,107.76060371348532,4.475698691441027,0.0,1.7286320983628465,1.333082723240246,0.001163937248892707,5.73018025730231,1.4768484194149956,1.7286320983628465,2.1829517810735006,0.6905800269282608,-0.4612503945663531,78.90937235356154,4.255085923067525,0.0,3.6857719554562105,3.109448643372788,0.0036227195341292547,13.460675504186245,2.7667762490953707,3.6857719554562105,4.822197193541588,1.1474382673031513,0.5804661139576162,76.98805166091789,4.187992211418659,0.0,0.6250726005592863,0.4662242452273181,0.0013998543746324612,2.3521009526106136,0.5427102906839782,0.6250726005592863,0.7797953595705295,0.934044223693409,0.4382835971812895,95.0714283204155,4.471562538730386,0.0,G4
3.9591716812461835,5.528271082185219,0.00029500478587218826,66.95991248517642,2.4670482667729154,3.9591716812461835,6.799766287138629,5.405356464921709,43.1392033459248,225.9860941633246,5.48179327206945,0.0,2.0555839820048285,2.278928603691542,0.0005004995339491728,22.554161084156945,1.4951924216378003,2.0555839820048285,3.0690293396770105,4.475799441531541,30.03915928205179,124.03232694161063,4.901897235241891,0.0,1.4353389870979913,1.1950596548335053,0.008981563158725597,6.071106457557016,1.127932390804819,1.4353389870979913,1.867716677254413,1.235842255921342,1.1696936288972797,80.38134070291024,4.349607479713744,0.0,2.7185542777286438,2.201244464367844,0.0010602332027059014,11.654786141892394,2.301579392386107,2.7185542777286438,3.4980015084140232,1.1158086252836563,1.4881608135697295,87.70292885851978,4.286273477580898,0.0,0.5830020360325646,0.5314336541839595,0.0001938141396841198,3.608410799085355,0.4352131544160037,0.5830020360325646,0.7888682417345954,2.074406124119515,6.108786710010261,122.97679256652908,4.7801889228066505,0.0,G4
1.34556498591974,1.2829894999948888,0.010486671403014076,10.400309314246002,1.031752910112055,1.34556498591974,1.8591953066932818,2.6824320625716505,11.17951042286922,146.83998244206137,4.996415678151042,0.0,1.884085800029467,1.4816652629104192,0.0008254970079906877,6.973499022910897,1.478276136364769,1.884085800029467,2.3968961707149683,0.9486037336776616,0.35826069885134304,99.70343726978919,4.531411099426601,0.0,2.088415558650787,1.5786351862780121,0.00932984238785492,6.791548918543531,1.7128583441150846,2.088415558650787,2.617932122299907,1.0058455473631893,0.4362155498711293,107.28614489308,4.588628276214536,0.0,1.8275777204021195,1.2933969927275073,0.0020519535293830847,6.488292511609317,1.5164388949177086,1.8275777204021195,2.2389542435938186,0.9370124194700785,0.4178665678805116,129.16923565453746,4.793049268667406,0.0,3.3897671338720885,5.42238843730846,0.00022088660576848052,43.713861384348,1.5813410136641792,3.3897671338720885,6.394749220019178,3.748456770959261,17.506376134818886,123.91656654392862,4.912962110521175,0.0,G4
1.0910368933135475,0.881635622048291,8.485174432375578e-05,5.201661226460998,0.8962382674211412,1.0910368933135475,1.4027269415804897,1.3854545262381976,2.55450326960639,145.6656832517633,4.944548675233011,0.0,1.707730792735815,1.4264500233887047,7.04698211212787e-05,8.170035630909355,1.352301161878497,1.707730792735815,2.2251076669868652,1.299712052191543,1.913449035973633,111.64313178169047,4.685609413560431,0.0,2.2241603712477436,1.7801841554097433,0.003821553303082998,9.146533638315729,1.7440600453508894,2.2241603712477436,2.84884976511588,1.0665178445466805,0.7219200369382399,121.85335705809922,4.67728838400974,0.0,1.7434470955945254,1.424775074420977,0.00048365178051508126,7.755931891654811,1.3545307687780594,1.7434470955945254,2.2515754013197706,1.2230319106164487,1.3612443595275252,129.06704201596514,4.828942134148157,0.0,2.2089249327650315,2.5106280038548827,0.0018376292362712737,17.931712761032443,1.4025111949814038,2.2089249327650315,3.3440398221808523,2.7794448424208333,9.684887786636901,149.91561817595843,5.049876408164952,0.0,G4
0.9667703223138872,0.8198476664897811,0.0003434885607019843,5.661489011759591,0.7965115445897599,0.9667703223138872,1.2675941986123307,1.5232688692257152,3.4565450559023922,156.20848392125842,5.044351549627215,0.0,2.329562364445482,1.7482703038444405,0.0023781003185921537,9.032758509339894,2.007643201628763,2.329562364445482,2.9126122064471875,0.8080980414414097,0.2773810172204558,113.19758829703188,4.64603228156129,0.0,2.405252936515114,1.5459581075899251,0.009825867651853015,7.647907370146135,2.184431107547076,2.405252936515114,2.8592355899851274,0.5883191581602417,-0.14933546869766134,92.22650065843223,4.3843425639822735,0.0,1.6990231758013705,1.4063593202759976,0.0007507146502354848,8.395169441175128,1.3836818623941396,1.6990231758013705,2.2055671129297654,1.4404844548468576,2.5724062242378096,158.12728255607337,5.010738880624449,0.0,1.4449593717486557,1.5725596179482724,0.0005245006596197727,9.752445234508048,0.9644563258973982,1.4449593717486557,2.135614978877486,2.3174886397439076,6.571174029678939,135.86801052936514,4.9340307399130925,0.0,G4
0.8985775775232075,0.6273884364914087,0.0017718298661463395,3.838449032065803,0.7803208540427655,0.8985775775232075,1.0959278776774548,0.8756973827453718,0.5107755876562092,140.51284296399524,4.847820292243922,0.0,1.36144761677815,1.1473646157389867,0.00041234323736554987,5.64266181765278,1.0220521348805423,1.36144761677815,1.7804452181071948,1.2293361287465627,1.2342330232791987,118.67071733971268,4.686684524370996,0.0,1.6367437419267896,1.2512418858040744,0.0006350122074642046,5.631880070870846,1.369951314958838,1.6367437419267896,2.0602272528842653,0.8389073157270426,0.008691267610148046,95.10352464066486,4.490861988358145,0.0,1.8467571614347118,1.4309932413658122,0.0008316532284984579,7.332406984342488,1.5708778168974256,1.8467571614347118,2.336290579132876,1.0822880713951306,1.039772340857514,161.2666111352261,5.032570746513069,0.0,0.17406898852884994,0.12781632834975637,0.0007026279718227349,0.6955946007993494,0.14898515853843056,0.17406898852884994,0.21595607553451612,1.1315268491845876,1.1995790840981755,146.47088228138665,4.9277837622902165,0.0,G5
0.90802669631249,0.7318056616230851,0.0023521303421445146,4.084964067356834,0.7538885474016752,0.90802669631249,1.1662126768303356,1.1529191553545812,1.5737573489803802,147.68482110040068,4.925522475333229,0.0,1.8959504479711586,1.3390975738398136,0.0038323587532699682,5.768438920715486,1.644002752914952,1.8959504479711586,2.321165744496871,0.7202309669424372,-0.21055890394864063,100.70277524627882,4.473290958917153,0.0,1.7373777317534072,1.4904929773326607,7.8799673513711e-05,6.645395570484741,1.3531729679277222,1.7373777317534072,2.2891157022463045,1.150385191541833,0.8380117253830948,90.76479810507472,4.418157780212406,0.0,1.5466923400519712,1.1114014704671238,0.0004989587197751048,5.265469346339295,1.4031996097635937,1.5466923400519712,1.9045919309216681,0.7994213564614991,0.3022377789179189,141.98308999758973,4.922087744901097,0.0,0.11541532088529546,0.08836105300463129,5.301253970011778e-06,0.5817357285415742,0.0930994751501538,0.11541532088529546,0.14535601804928125,1.4498402846274014,3.394213797497825,129.70186792604372,4.8067192877920295,0.0,G5
1.114400048492766,0.9092968313786857,0.0002131903114432586,4.67628236526188,0.8704746132368848,1.114400048492766,1.4383004538815933,1.164599834631787,1.2310043870973297,100.07656497577442,4.529789371135517,0.0,1.8633857294167573,1.4960066526946119,0.001161595087667791,7.209546140756742,1.5578221532216254,1.8633857294167573,2.389611324358118,1.1454205033241136,1.047282759261873,110.1245395335821,4.577010061459454,0.0,2.141734283536232,1.5624133938197229,0.014831581368695196,7.557006965530082,1.8741944517608546,2.141734283536232,2.6510679648891915,0.6841046327248346,-0.11621745202842204,85.978809915123,4.3598735883846365,0.0,1.6468824051189468,1.245428970855877,0.0004353222781356622,7.660894644122533,1.4253421777871984,1.6468824051189468,2.0647796438694117,1.098386525725143,1.5228075719658225,154.67314829978366,4.980898217479773,0.0,0.17044884515270112,0.11805152678087287,0.00013389387485244434,0.6899827725685189,0.1529342764076789,0.17044884515270112,0.20733782045055033,0.9801476412781474,1.1409237083943884,124.17246847262746,4.780919869584441,0.0,G5
0.6738774277742404,0.5831808970212481,0.00041008223583119743,2.698194887346267,0.5197529677916014,0.6738774277742404,0.8911850236141395,1.2110977198097892,1.1237338042155738,76.49244949536411,4.264999346962831,0.0,1.6204852661691576,1.1283916522719677,0.0031450931759131676,4.599374257022131,1.438449549295145,1.6204852661691576,1.9746493913574596,0.48468059075023634,-0.6650681834828802,89.24535886502063,4.250576458271738,0.0,1.7970650588469084,1.5215199300666409,0.003033818467798273,7.419868998935761,1.5139054645863927,1.7970650588469084,2.3546689201071214,1.2229998768788455,1.5361246868953087,81.53890952463323,4.344731191895906,0.0,0.8923962760734544,0.7868918478285039,0.0006718473050657849,4.562703125811555,0.6717464850351944,0.8923962760734544,1.1897772454240023,1.360970615180976,1.9378487292365252,113.44463847917017,4.634106743231697,0.0,0.07267361883270869,0.06554611237724021,9.839549651335014e-05,0.3350678323176046,0.05713547616677171,0.07267361883270869,0.09786596815038223,1.7014660005368705,2.9578221415724597,127.07742165433297,4.764058438897873,0.0,G5
0.7041866674058979,0.5463177818193629,0.000814755696543744,2.751164662628686,0.5978999446926242,0.7041866674058979,0.8912586500473662,1.1267673858560425,1.4071065091301502,70.94746975793042,4.139635135785764,0.0,1.3097058506634602,1.0029878729886497,0.002769729917925184,4.167601625010777,1.0738886853453362,1.3097058506634602,1.6496405937731995,0.7766157681525588,-0.19990066016277197,103.74549704380368,4.55791999890085,0.0,2.1448292961212836,1.483306376918091,0.0002937690524899301,6.8514916303346585,2.0357351903671095,2.1448292961212836,2.607775012785036,0.5416086061138967,-0.34404967225576,77.42828551570148,4.254467649624773,0.0,1.035767969144769,0.8598847938010066,0.00047992040082633913,5.783248244733697,0.8806196910301527,1.035767969144769,1.3461861477954968,1.5730728871498862,3.6141494259735962,117.63963548449163,4.741387289652088,0.0,0.04500438639398401,0.04719279789545954,0.00012668121785434447,0.2562789640588455,0.02667895362711978,0.04500438639398401,0.06521161681710325,1.7367015933831993,2.8915806414958327,124.35612408198206,4.8258074346763085,0.0,G5
0.9051856575743368,0.6808932503434221,0.00048288405543206827,3.069455435360786,0.8100622563381434,0.9051856575743368,1.132685610856567,0.8692716031394311,0.3639121692638678,98.01671368627038,4.3754025109994235,0.0,1.545460688955657,1.265595203543465,0.004498527102393833,7.367064006229936,1.2091813831939282,1.545460688955657,1.9975434814640507,1.2996755064656016,2.102016540239007,81.47852318298246,4.335919433271377,0.0,1.4009540440574595,1.0961422011045654,0.002702869122884956,6.586271518551131,1.1483736581694082,1.4009540440574595,1.7788198218491136,1.4265243881764733,2.7209157364375276,94.44755115903779,4.41698851725206,0.0,1.2913713652933356,0.9943180753214067,0.0008245544710433992,4.419542830327312,1.0698008182179133,1.2913713652933356,1.6298185291652687,0.9240860905832975,0.38527623239612163,69.42956356435529,4.153722405848157,0.0,0.03414985426145545,0.04799230412414028,8.577349672049084e-06,0.39638875837394316,0.018185672413877252,0.03414985426145545,0.058902239356603575,3.556224499941417,17.455553876747764,133.08475906424331,4.98152478470174,0.0,G5
8.840941031555339,8.095577565419912,0.04115361353792776,42.36575065735132,6.450215412181257,8.840941031555339,11.987519111190979,1.4731680405262204,2.2467021514230314,137.29597691719647,4.920938477724918,0.0,7.209109251377101,8.444097348723979,0.006975106042796421,58.6454880985883,4.133535211127303,7.209109251377101,11.102884140304186,2.5968502063018377,8.619476129280752,142.55735149553033,5.022868039217322,0.0,7.507277505721853,9.95497286990053,0.004728584724153176,59.369997016333365,4.146087958633176,7.507277505721853,12.468388042901655,2.5205031939068947,6.958800812011797,149.09688077993138,5.0436252054157125,0.0,37.76734937090906,35.51541587594456,0.008257863603650328,213.01198896373762,27.901341832104748,37.76734937090906,51.84320055075304,1.8194781720871969,4.426623900511273,116.95490347212572,4.7391397984730865,0.0,0.627460413909276,0.9330180404167363,7.928444348688588e-05,6.737770480821057,0.34511027244788434,0.627460413909276,1.1243794887698222,3.655858964642216,15.577505023774833,128.97645419770532,4.939641488336021,0.0,G4
5.873920880492624,5.435260843905298,0.0019268000846056482,33.32807087009159,4.237852050093828,5.873920880492624,8.002812440109876,1.652348653684954,3.3807396724150216,158.44973409921147,5.07837770145342,0.0,4.039895231179443,4.221933784540481,0.008285593144194796,29.43662338667695,2.6330660128895893,4.039895231179443,5.843413245693882,2.1960411814992127,6.475257892737764,135.24367510989572,4.958312793355811,0.0,11.28607564959759,13.147670380220067,0.004495776523608219,80.06023750562436,6.946910628516653,11.28607564959759,17.327340822969802,2.3497277323157175,5.940522048558995,148.8744017514743,5.05659184682325,0.0,5.4967749361985065,10.474315822853157,0.0022319999005158088,72.28874204202613,2.333576394845831,5.4967749361985065,11.829024755071405,3.929449142028367,16.414259879698708,179.90726726029848,5.126115507008706,0.0,1.8220508143526934,2.209138614080647,0.005378580159611797,15.35958244397634,1.1348551287546904,1.8220508143526934,2.8635926013149064,2.805207317110339,9.933985668834305,123.78681172553829,4.828489481805463,0.0,G4
4.714828411487863,5.448744664587185,0.0008526830545638187,39.95242723505687,3.0613533674341484,4.714828411487863,7.2054441479787,2.813291167183258,10.76438189296819,139.81699448316118,4.95718115897019,0.0,7.76050907979196,8.163007783059301,0.00717764158968337,62.10112061395187,5.289704666098563,7.76050907979196,11.263223217348584,2.5442693390628293,9.488389750924942,138.9432658393619,4.960566419555242,0.0,9.75833537818073,8.44013324841731,0.008316359789215633,56.357349315426404,7.981710371743597,9.75833537818073,12.901974988508272,1.525589037712255,3.6047849305545574,144.68932472852984,4.948082149929606,0.0,1.9910868536305124,1.5220374268566528,0.0017908584768043592,8.916647158606187,1.6545586819911828,1.9910868536305124,2.506197276243966,1.0885964397341397,1.171037691617105,148.17789427697764,4.946643025993936,0.0,3.3861561924376473,2.9578867109500635,0.016732246182748045,14.850686516340017,2.545463914494804,3.3861561924376473,4.49612583836338,1.2846456549055112,1.3827959249972785,144.8112962137808,4.968611536601695,0.0,G4
0.21326854606762108,0.17837301983555656,0.0005051883778040712,0.927744117872207,0.16816752729983636,0.21326854606762108,0.2780295073316012,1.3104528662061674,1.6228786606445,124.28845309011294,4.817470888137062,0.0,0.2895780411221267,0.313516435550206,7.473027762642886e-05,2.211013862894279,0.1820859929572992,0.2895780411221267,0.42678800037048203,2.0258753434561414,5.648736324821362,176.53452155346594,5.200678495789203,0.0,0.36047042642573834,0.3790593485147635,0.0010186548001413242,2.647832590927411,0.25349473922251653,0.36047042642573834,0.5230916917940779,2.512725260905798,8.023710636590897,141.42457160045348,4.954457577572013,0.0,0.19583966547516019,0.16580274927932812,0.00012192962590085177,0.8960126746369818,0.1484854222239762,0.19583966547516019,0.2566003239319981,1.2086983064938468,1.2073572251499174,142.0003230365377,4.938531220883927,0.0,0.2701350102782917,0.3021295954977505,0.0001654928851975851,2.193790284700327,0.19802382793050577,0.2701350102782917,0.40528411793911573,3.282750755713845,14.111120256165172,126.37705825934987,4.866302152038687,0.0,G4
0.17131517413817127,0.14752222557365402,8.874411704057686e-05,0.8578663078196166,0.1303760930696047,0.17131517413817127,0.22607895949910067,1.3851609392836979,2.0488771251029174,155.15789055420504,5.041228716708426,0.0,0.22974685954393653,0.1957096051699815,0.0007817476937169096,1.1402382498685482,0.1761959712415489,0.22974685954393653,0.3018043555452627,1.3517740737217359,2.418061944966051,157.52339733092404,5.04432678375865,0.0,0.25487930944442516,0.20813166954043114,0.0001664559899721852,1.0996983569030463,0.19913279000971762,0.25487930944442516,0.32906269045358866,1.332800375713869,1.8066711798307864,138.1990003197227,4.8949529893569945,0.0,0.2022838325980217,0.18432521736148783,8.352888979871933e-05,1.2541367858079588,0.15096418644954246,0.2022838325980217,0.27366865857438666,1.8129114069295305,4.914109602458911,126.74814105791249,4.853091656916535,0.0,0.2651772221154474,0.2726986265127821,3.5802853920696015e-05,2.225854926175606,0.18978261692989495,0.2651772221154474,0.38037284344551087,2.785268050452663,11.9794367071767,128.16576308843193,4.909185045153085,0.0,G4
0.23887460729674634,0.20264509291502336,3.8042714212913054e-06,1.085511838751735,0.1891662796110154,0.23887460729674634,0.31325087660486,1.3500335773160073,1.7028502848945122,122.4014473841537,4.772727164924952,0.0,0.1830086846473788,0.1629022087814285,0.0001637761007140994,1.0933629434561005,0.14473003204882012,0.1830086846473788,0.2450087922549553,1.9818592675654907,5.833399457349323,143.9822917392783,4.940231061011646,0.0,0.3122775828875926,0.2236782558154639,0.000486947536708584,1.137711888133309,0.2741553313389382,0.3122775828875926,0.38412140125065325,0.7363803378432563,0.03788207640620245,141.82850744874182,4.874011012167451,0.0,0.1429329809975859,0.12154231009259188,0.00021965236366212676,0.7386676490987072,0.11236030898667013,0.1429329809975859,0.18762294688949968,1.4695710878120483,3.0283993772373927,169.0781504430008,5.13078703167369,0.0,0.22825895399021576,0.18377455008775348,0.0001516866920754159,1.1828256992316861,0.1864784233916817,0.22825895399021576,0.2930447667791794,1.4272049728945735,3.0743949276531772,121.99505441687856,4.785226947188672,0.0,G4
0.17584123938262616,0.1595100551862245,0.0003868860888478647,0.9412094317164522,0.13282312679414662,0.17584123938262616,0.23741019180551287,1.3105340652816073,1.6297838103380995,170.10035433766674,5.124410696800214,0.0,0.19981668684473544,0.15910094713031006,0.00012416632836705598,0.8046238440112305,0.1638161924557915,0.19981668684473544,0.2554208678228323,1.1283302690036199,1.164410832046027,146.48446584414134,4.909496006840647,0.0,0.2503679557531668,0.21070203796234668,3.401794862589952e-05,1.2254406052594011,0.1966619112613403,0.2503679557531668,0.32722998345125076,1.4388798527756939,2.6768890086020622,141.17689064234972,4.931463011023032,0.0,0.2438116108238661,0.19438078039548304,0.0011197187299288262,1.1633294857381002,0.19137911262919943,0.2438116108238661,0.31181403008794417,1.3698968994377514,2.344647222377475,144.7123509215962,4.929003856308863,0.0,0.12940833927685572,0.11397790894776495,2.8604814002299375e-06,0.6891115469940768,0.09854470344161594,0.12940833927685572,0.1724455914266839,1.507215511815173,2.7243244639703086,151.19726252743632,5.016670706727642,0.0,G5
0.15457672156265692,0.1344327904768627,0.0004172412254602023,0.8772346357855451,0.11486052999835761,0.15457672156265692,0.2048563838508706,1.5226648688535105,3.1495261949470326,158.33361157993076,5.052957695603316,0.0,0.2017328315732856,0.1712292022645382,0.0004919095382808995,0.9144656671395254,0.15687142179631344,0.2017328315732856,0.2646045635334465,1.2230300673397787,1.1011964034579442,140.5083424527381,4.931664993962605,0.0,0.20303736028841762,0.17073152865912236,0.0006715623691060527,0.9713742116870814,0.16072725847224734,0.20303736028841762,0.26527989850565276,1.291084866744367,1.6455518961462845,147.78506271048502,4.970507447467712,0.0,0.23995978672220197,0.2038815804429345,0.00028797412368719057,1.0608099848611308,0.18159819631959412,0.23995978672220197,0.31487838618691094,0.9995616828307156,0.44198518111357776,158.93026079861647,5.0578088267363235,0.0,0.13043801965274998,0.12028956271206698,0.0001383295985723878,0.7885052748067216,0.0922956863152153,0.13043801965274998,0.17743634314421464,1.7203091073881494,3.72735427497527,149.53083309005305,4.97150652149297,0.0,G5
0.17894463214978187,0.1496885350880795,4.7551694716173754e-05,0.8908393622552493,0.14324489703791812,0.17894463214978187,0.23329774733596542,1.4955004112091994,2.76220562213531,152.27720631410813,5.0075284122579635,0.0,0.22661570745925189,0.18785737147437132,0.00041737438939305153,1.0584495761492148,0.18068420226843473,0.22661570745925189,0.29435534798015334,1.1648166390126844,1.0440527019153292,133.53083860865866,4.823327253466531,0.0,0.24914736481113986,0.2084459016508361,0.00010732580910748427,1.1486603570901173,0.20659614102661217,0.24914736481113986,0.3248447372320587,1.1655103831597315,1.359888339699972,134.0607364056805,4.909270334792025,0.0,0.2346568151023816,0.19916102603601413,5.7444634057536755e-06,1.2509606671394273,0.18235245938728872,0.2346568151023816,0.30778066080524163,1.4378224526969727,2.7042588619848438,137.96845120272727,4.892426995485359,0.0,0.13640455094810536,0.11345460045786254,0.0002382364259666693,0.7209759208331721,0.11149045191236885,0.13640455094810536,0.17742082145116875,1.4374254255898948,2.562170596008481,155.54060328463584,5.008589749783636,0.0,G5
0.18961381940192204,0.13713494396002351,0.00023259378755080638,0.8405693956792025,0.1710262291520199,0.18961381940192204,0.23400725066352854,1.1890547573291688,2.1234661275752336,140.38820473369555,4.868194852593444,0.0,0.14514250531294837,0.10994490843721645,0.00018684792241802192,0.7289487975571183,0.1147572119544421,0.14514250531294837,0.18208302979626398,1.0333664116332444,1.0209301606941814,155.34152057889946,4.977945911592825,0.0,0.30819012742845514,0.2623339789237576,1.5705334477755795e-05,1.2725105324705066,0.2427257883789354,0.30819012742845514,0.4047224618702771,1.3783978757984043,1.6491921491687043,125.54450125390748,4.795965197385174,0.0,0.27133925509906487,0.21170100684691842,0.0007707462951526127,1.1537403692302073,0.23319051953437575,0.27133925509906487,0.34415448225718986,1.2295110962668065,1.5948887354393335,122.80365558153804,4.736722541494145,0.0,0.18338429894849007,0.14400785173070613,0.0001816612275543502,1.119922924347964,0.15616440611085947,0.18338429894849007,0.23316960020749322,1.3681918344917634,3.1448127535965043,181.53646740223994,5.1660632899797125,0.0,G5
0.4098407296856072,0.43939987331892805,0.00023928362664720534,1.9545410535305354,0.22192135164500648,0.4098407296856072,0.6008674332845149,1.347943854765785,0.8820899805768576,69.66740626778176,4.121725914279002,0.0,0.21653784612016874,0.1860650244010589,0.000126272726890514,1.16915996249223,0.1830505282410692,0.21653784612016874,0.2854975168153456,1.6466944779259094,4.4117633373662795,127.28264913321931,4.832780374314634,0.0,0.29771698401473146,0.2248895483604535,0.00043220915180063523,1.2330715014241078,0.2548290843100507,0.29771698401473146,0.3731095168078624,1.0097688900073158,0.9600848722348729,143.46927705794002,4.917626267252988,0.0,0.21290076856003226,0.18087154980013004,8.768864357955044e-06,0.8656166664808063,0.16650886776735785,0.21290076856003226,0.2793586490169104,1.2074825515958905,1.167941422599446,132.4140445410047,4.8649982624014125,0.0,0.1575442061780101,0.13538569154925237,0.00035378783180777955,0.7269981332350297,0.11714104352454806,0.1575442061780101,0.20772448670421276,1.250030595309274,1.4879358210924982,163.39621461599725,5.104651984316117,0.0,G5
0.1818829853778788,0.1459700409191844,1.0816652383336886e-05,0.7110197112293088,0.15043897175070414,0.1818829853778788,0.23321379293669153,1.0188573162639802,0.6660704334485201,141.18123325580905,4.896284759269528,0.0,0.15457696420556546,0.14016006599410027,0.00015650829672240237,1.1336850549687847,0.11768088306002183,0.15457696420556546,0.20865972769674362,2.355819057841164,9.520664476549076,147.44608740499478,4.983462059816927,0.0,0.2831189545222563,0.23004195302044167,0.0004121104279411203,1.121740926199007,0.21687813938391232,0.2831189545222563,0.36479534339028297,1.0110194629197136,0.52851696513491,125.78171984680408,4.8077997384471995,0.0,0.2125281429186295,0.19486536763094936,0.00022611081684681866,0.9822807324655913,0.1521026766017009,0.2125281429186295,0.28834133077723434,1.2924678189706957,1.207212232514122,117.97200574756087,4.750360871395257,0.0,0.16755703287453957,0.14283318920615554,7.556814319736871e-05,0.7446660141086981,0.12179449130421294,0.16755703287453957,0.22017420195045775,1.2961148494093124,1.4740666367245225,159.024471071148,5.047438927341336,0.0,G5
0.20998014974976317,0.18725060057589077,0.0005222648992593039,1.0375756667833307,0.15766115786808976,0.20998014974976317,0.2813440077644533,1.4578728975348854,2.2040280676426915,157.22679419838195,5.04266474032848,0.0,0.1795915226325215,0.16808455520143922,0.0001535171711588693,1.2290831723131044,0.12784290780836544,0.1795915226325215,0.24597872407737453,2.003590333293546,6.703356043479946,147.55357952799912,4.992637450112476,0.0,2.693560546194002,3.603025655209872,0.000805467637440079,22.089453637024185,1.2993411984348677,2.693560546194002,4.4985622467754585,2.558090840202387,7.001841911254408,155.6346811690219,5.021924669289876,0.0,0.1966614844607385,0.17973188182287908,0.00042489480691683195,0.9599069507372584,0.13855931593585263,0.1966614844607385,0.26641938520666,1.4157757951014196,1.918548434571,152.05892812937745,5.030046434213457,0.0,0.19048727125223508,0.15369641775725484,5.5861197439032936e-05,0.7853492695528921,0.1498292609650297,0.19048727125223508,0.2447610862464358,1.098697647523817,0.7215379823189014,150.4340084184047,5.014234059297989,0.0,G4
0.24176473202001153,0.2153252575764207,0.00021695272047565078,1.4301137692211734,0.17980813633401693,0.24176473202001153,0.32375168292853695,1.5610356639787948,3.0947712452746003,149.1506627911237,5.014454373620744,0.0,0.1568378910641938,0.14214542930691926,0.0005781974236935428,0.7840984029331863,0.11454014034233467,0.1568378910641938,0.21166824784627547,1.6821895319816038,3.136892392756545,143.41359693922996,4.980931323015373,0.0,2.652998599025536,3.695388691884555,0.001354487760339699,21.426602461753966,1.3523142959656425,2.652998599025536,4.54909871848696,2.5528853899800277,6.6243959258753105,148.21489592294478,5.0136283212516455,0.0,0.18904897518777897,0.176093669983084,4.324877257856088e-06,0.9191300814906337,0.12891847131008577,0.18904897518777897,0.2583573022534118,1.519414976370142,2.0945392666134417,159.35900419787123,5.0587967277029,0.0,0.1850671535871349,0.14904451350900078,0.0012420344386995892,0.7807075861017556,0.1414868700510103,0.1850671535871349,0.23762179686211213,1.2934141756453315,1.5822331722433507,146.29238060475961,4.947579846066632,0.0,G4
0.22417411188618416,0.19220444576483306,6.564629941984389e-05,1.1374927046983456,0.17427437059593648,0.22417411188618416,0.295290672747593,1.4663103109582816,2.619550544007242,167.39311265803127,5.110243539164749,0.0,0.2009593931038865,0.17602798676271164,0.00033124662287581375,0.8960695467662192,0.15109790051219046,0.2009593931038865,0.2671526339013257,1.5295628376068569,2.4237042562178477,130.7101212251567,4.848741127591544,0.0,2.622724864834991,3.5947907401352874,0.001630366358830359,20.263641327900608,1.2448194604929514,2.622724864834991,4.4498546248148525,2.37608161974775,5.707108080088869,163.56971062389852,5.077764618661891,0.0,0.20299245304329253,0.195571393108257,0.0007734313225184514,1.3277177170285739,0.14951309951325248,0.20299245304329253,0.28187604686251316,1.8900707987066443,4.783785994352308,163.63214552488043,5.079291261304636,0.0,0.15621532583450465,0.11768995332634996,0.000665320244474809,0.5469431521466399,0.12788919086700123,0.15621532583450465,0.1955866895766143,0.9222975363255298,0.36254910507751115,147.73492866210512,4.931790194510407,0.0,G4
16.402727887303193,18.985313169727913,0.005362274098358113,100.81938072854783,9.375127275398846,16.402727887303193,25.089671147656716,2.071048967410177,4.265675915037196,126.35149563091981,4.841265425872717,0.0,21.579249847105412,29.69338065065109,0.03223310049935896,194.6938667373011,12.000644522739956,21.579249847105412,36.706414676841696,3.1689934713429793,11.373956734597456,121.77396444485034,4.850893360377282,0.0,7.986370367240732,9.844227492686139,0.016140207416634716,78.14833270507617,5.051930477334329,7.986370367240732,12.676392490393255,3.457404962290425,16.31678763425385,119.84385160356906,4.8532619370515695,0.0,18.572369305583436,23.35495850748328,0.0032501219014940824,185.50612890834546,11.649800594024576,18.572369305583436,29.839353017604843,2.695514813450218,9.109511258945911,192.08255347855126,5.249612353765647,0.0,210.98534421791632,278.3752056010294,0.1765315813452113,1795.8553880825477,106.69943654033264,210.98534421791632,349.2958210001488,2.462119019470293,6.777361562193864,141.129798606173,5.009966694819848,0.0,G4
3.4271709012414058,4.641395719597459,0.002468524544356733,43.76578396229465,2.1919100647086744,3.4271709012414058,5.769580107097348,4.376210087162736,26.69961459902922,120.96531432437806,4.879022709864411,0.0,5.525079267543806,7.551797838115882,0.003045146238108736,75.47402801074642,3.990514470699832,5.525079267543806,9.35714440950946,5.221000632449935,35.966204426098884,104.62844249186594,4.76248963277642,0.0,2.914081809958293,3.148340276810687,0.0010256595967023663,31.040512001070077,2.0425623222925795,2.914081809958293,4.289978938610094,4.028186368264298,27.414389945149022,119.44346607327601,4.79310031678676,0.0,8.747939197658628,7.070577643114027,0.0164134538789093,37.97848397412512,7.318911263142747,8.747939197658628,11.248089100519971,1.5212472578087743,2.7164009779122615,101.51950311795287,4.541639834968128,0.0,38.62270168751998,54.619017991815355,0.010103555314829024,341.20844591848373,18.876490718468844,38.62270168751998,66.8950686675289,2.7326053228300777,8.167437702818129,138.9041137567926,4.954332315788926,0.0,G4
1.5130311322098682,1.5349706715578606,0.000220595123092103,8.036517864744527,0.9481685943885756,1.5130311322098682,2.1553185772825016,1.7274330496632009,2.9524892039044275,140.57732196631648,4.960643469886931,0.0,4.066698630944609,3.348648125359588,0.00397557419749385,17.48846714877312,3.1727824862280025,4.066698630944609,5.267967541889475,1.4311563484218799,2.3382994928928458,65.11015046212563,4.115062146122153,0.0,1.9101074743768454,1.6970094286969173,0.0028828250282400478,8.598235462685823,1.4342401230272053,1.9101074743768454,2.555063906198146,1.4811891741057985,2.298384836343436,86.38004665694837,4.392785185372151,0.0,6.711988466241691,6.374872960283741,0.007269894113120106,41.312538402806894,4.974803795995104,6.711988466241691,9.256878222744334,2.280476943336389,7.382735418296898,91.85600907144675,4.4972983647541005,0.0,4.693499693299683,3.261834286388277,0.0070878228908041255,13.863156403369588,4.30732949189358,4.693499693299683,5.715636647204083,0.46122966730200565,-0.7048579766109557,102.63932845801163,4.536323511439022,0.0,G4
