Chan_1_mean,Chan_1_std,Chan_1_min,Chan_1_max,Chan_1_median,Chan_1_mav,Chan_1_rms,Chan_1_zc,Chan_1_ssc,Chan_1_wl,Chan_1_iEMG,Chan_1_var,Chan_2_mean,Chan_2_std,Chan_2_min,Chan_2_max,Chan_2_median,Chan_2_mav,Chan_2_rms,Chan_2_zc,Chan_2_ssc,Chan_2_wl,Chan_2_iEMG,Chan_2_var,Chan_3_mean,Chan_3_std,Chan_3_min,Chan_3_max,Chan_3_median,Chan_3_mav,Chan_3_rms,Chan_3_zc,Chan_3_ssc,Chan_3_wl,Chan_3_iEMG,Chan_3_var,Chan_4_mean,Chan_4_std,Chan_4_min,Chan_4_max,Chan_4_median,Chan_4_mav,Chan_4_rms,Chan_4_zc,Chan_4_ssc,Chan_4_wl,Chan_4_iEMG,Chan_4_var,Chan_5_mean,Chan_5_std,Chan_5_min,Chan_5_max,Chan_5_median,Chan_5_mav,Chan_5_rms,Chan_5_zc,Chan_5_ssc,Chan_5_wl,Chan_5_iEMG,Chan_5_var,Label
1.441343275275187,1.161304871019143,0.0009067647345688823,6.060419925261427,1.1373378594447434,1.441343275275187,1.8509725661483456,1.1901741105688106,1.3736114753827326,146.99401132637152,4.91212618966143,0.0,1.4662968171459907,1.2849792618091251,0.0026525193630654803,8.060990577171504,1.104085546163735,1.4662968171459907,1.9496661404589215,1.557083206979213,3.210217826188946,114.88713429590271,4.741106878157967,0.0,0.5176344363069753,0.4247045044333871,4.202796485710267e-05,2.0438480550303684,0.4251716075570936,0.5176344363069753,0.6695665207706019,1.087855084476885,0.9680490013371355,141.30557121410098,4.922793270090401,0.0,1.8356350728971467,1.483651963266931,0.0011027180454459828,6.464711337096405,1.4125386314213646,1.8356350728971467,2.3602498318940586,0.9299437281160275,0.019036033389976836,142.14972422970894,4.937695736696363,0.0,3.76197107371452,2.770050185402939,0.0018991756849541597,14.530673798559016,3.2032095145610606,3.76197107371452,4.671788136154682,0.8218913799840026,0.3383814833662422,108.95289020976927,4.607673056569773,0.0,G4
1.3326087784940432,1.1213636957716537,0.0060494097323123205,7.880526732010063,1.0983317535766706,1.3326087784940432,1.7416379344496513,2.1966710102569933,7.661368817097969,117.22148015825606,4.769019487625291,0.0,1.4257512796652059,1.1295471590201784,0.0018570952776374092,5.365806857841999,1.2181083934325514,1.4257512796652059,1.8189677006251452,1.065867000363417,0.9452214453985088,108.28179933812086,4.627442129395654,0.0,0.5120340332492707,0.4145554959245551,0.0005559548722690807,2.3584873818096592,0.4161492790438402,0.5120340332492707,0.6588134109190318,1.2985531690569185,2.1176020459553238,122.96445067396742,4.739414424479352,0.0,1.6448369231597555,1.2675675899362666,0.0003696395205249267,7.561194812463292,1.3710549375707108,1.6448369231597555,2.0765876092393714,1.1284833288274434,1.5674741569410768,129.43470505248675,4.827250001227444,0.0,3.1260592135760117,2.3859001712939114,0.0009091121771575138,12.588689261189117,2.63100905624108,3.1260592135760117,3.9325266476101324,1.2573250705633856,1.973760659389951,104.71390080028291,4.633715595919666,0.0,G4
1.5524450370868317,1.3066493396368046,0.0007784892172584615,7.391064662526505,1.2209468181503031,1.5524450370868317,2.029142205452548,1.3341953968691518,2.032895312521937,116.78581375661614,4.742281498616197,0.0,1.2269378912453734,0.9909614782075721,0.001239000777762407,4.7090508649445955,1.021933361265285,1.2269378912453734,1.5771433797423051,0.954438576005198,0.34057034494159044,118.35747584516116,4.759047215783837,0.0,0.5331185941234045,0.38832920897372597,0.0002870562102168196,1.7369893912505523,0.45025723063793716,0.5331185941234045,0.6595566768233606,0.6116893156741972,-0.4754779124195303,140.12865035047935,4.881931404796033,0.0,1.9621599962413272,1.4095464650847034,0.00021288886079944003,7.165590374840013,1.717159232600956,1.9621599962413272,2.415966284550045,0.883276596356121,0.4473470027928732,158.88981915354793,4.974573797495188,0.0,3.540951200236953,2.759948085634728,0.0003367686719005225,12.284903320950692,2.988785795770088,3.540951200236953,4.489504297565413,0.8780242496049757,0.24546984857740028,97.8673199535854,4.4783733532403955,0.0,G4
1.343128166878896,1.1158507682371022,0.0005661254052205938,5.43244874418043,1.0465798917692848,1.343128166878896,1.746171872880443,1.2364041895077686,1.2550331700188098,132.4175443804444,4.857180549042674,0.0,1.3737980407289887,1.0162723223064303,6.595700145202617e-05,5.7411320005717865,1.1080477994719988,1.3737980407289887,1.7088389303257676,0.8807290226804705,0.4932176351891342,121.03059499819199,4.7145405779374325,0.0,2.969479138824965,4.819772092560811,0.0011348284160626332,25.688544658726233,1.1624000062768665,2.969479138824965,5.6610961288556725,2.637694654871099,6.347445734436224,151.1897179943284,5.07317197954579,0.0,1.4816831268679607,1.1268614482093264,0.000994550277859843,6.406716984858171,1.2298483163055187,1.4816831268679607,1.861505200612031,1.1067690991738455,1.218595558321475,134.10887256349852,4.853990163676011,0.0,34.36580758351646,38.54376053925845,0.008023346095018535,221.60519105295663,20.905179265049316,34.36580758351646,51.63942493265174,1.9444269001682872,3.8153658422380046,166.87285212539047,5.10681178070605,0.0,G1
1.6158665389784346,1.3593315590513044,0.0023820390889177853,8.205905601448766,1.239775473249296,1.6158665389784346,2.111588728711866,1.4875793976877534,2.963699813778611,135.659272896278,4.871893089131031,0.0,1.662769634523589,1.2801551405257492,0.0045033038098074435,5.99324892026025,1.3705398260303587,1.662769634523589,2.0984756470610306,0.9954459695564895,0.42553187394739167,126.0629019389373,4.802088335695717,0.0,3.2373796665409307,4.880689202031598,0.0012626257350441816,27.32516871946959,1.4593010271630318,3.2373796665409307,5.856769945299244,2.5729701844578337,6.180803824319533,146.93723801264534,5.032550884399028,0.0,1.6083285218765757,1.1523396208594532,0.0006734205793565966,6.610174983782696,1.3922851161866432,1.6083285218765757,1.978536640066137,1.0594676842644961,1.4194508860043973,141.5574319591535,4.8923623828459775,0.0,33.37652841244618,35.59819173015167,0.03148001760580882,210.6820547034485,22.521717331072246,33.37652841244618,48.79778584447726,2.016454850787534,4.500712853286953,158.0271474790806,5.047364411763352,0.0,G1
1.1589329400108095,0.9501083894977324,0.0005065281993195028,5.958583341119459,0.9620341807538497,1.1589329400108095,1.4986098595818973,1.348027681812457,2.4991593062604327,147.53025907231137,4.945814142499824,0.0,1.2027656495989407,1.000366171624811,0.0029512075001868567,5.069235618634594,0.9642071449426355,1.2027656495989407,1.5644096922438324,1.1905027023177364,1.1314090764965137,128.26634337120456,4.810490669303478,0.0,3.259352924679484,6.206860912037531,0.001650233690993836,44.19895508261309,1.1862287633639501,3.259352924679484,7.010599394416719,3.419462828866795,12.560305863127864,143.11448706106316,5.0202581212403805,0.0,1.5840044529071293,1.2010732835577786,0.00020529944894862734,5.944978396378932,1.3076230868420247,1.5840044529071293,1.9878750311088167,0.9004276426882273,0.2997893189406651,141.50747370314463,4.906890407170053,0.0,31.144535101847396,38.57736590754181,0.009621794144420659,244.3968470960362,16.487483153825888,31.144535101847396,49.580189865253374,2.260317736743901,5.739138249286912,153.47110792918502,5.046018095859871,0.0,G1
1.3474660874350233,1.1113406902387908,0.0021253008257229172,6.142804641178791,1.059550215907858,1.3474660874350233,1.7466376231399237,1.3623087870582857,2.0022267661378272,137.78650147645848,4.903994276687929,0.0,1.2500062108608505,1.1499394124975335,0.001169308429853827,6.8311866866155295,0.9280152926455343,1.2500062108608505,1.6984923254480353,1.529244591878833,2.7294536670526677,116.37533045772881,4.718802135344833,0.0,0.4662526208206571,0.363021708065867,0.00010994199372618002,2.075761328301018,0.394508142678588,0.4662526208206571,0.5909113867147857,1.3606155405149578,2.228004987343539,121.74118957697762,4.785684744848629,0.0,3.0490065926765055,2.5998787706300406,0.0005939427519040738,15.464902951598756,2.463254945378929,3.0490065926765055,4.006970279919426,1.4410022942673615,2.441924409922551,131.32528363655115,4.854857740163213,0.0,1.9379016329021541,1.399090805958966,0.001996586986877699,7.889363641755904,1.7496693084582968,1.9379016329021541,2.390171086370962,1.023768111848957,1.489909454981131,100.87508752549238,4.543962585117421,0.0,G2
1.5851368095907787,1.2376782998084102,0.00010743422232793037,6.038688284675002,1.3118383706556882,1.5851368095907787,2.011095790591853,0.8772561594555583,0.27730083680346107,127.40845549217522,4.780206737641107,0.0,1.5710764336075762,1.3593680186715804,0.001372986037849364,7.419124974174942,1.1819848254302738,1.5710764336075762,2.07753762190344,1.4186654683299518,2.380577456755172,109.81617753495651,4.6043980550789945,0.0,0.5386751410258999,0.502448003165604,0.0006979215717766692,2.598318642109684,0.397631767275326,0.5386751410258999,0.7366307782358649,1.5084263992296494,2.3108133395545165,107.32772971032078,4.674770672557448,0.0,3.907674882768537,3.1868927130711198,0.002958023015472988,18.692305727689195,3.2629117439910136,3.907674882768537,5.042440694152575,1.4049098275931386,2.381367949954188,130.68726942193598,4.824750720217987,0.0,1.907238865419823,1.5641566239180296,0.0011540872172089746,8.38189628935131,1.4630821633686915,1.907238865419823,2.4666061773040586,1.2311450540840354,1.4805688913520516,99.25472271663433,4.554292848949697,0.0,G2
1.491486320542463,1.1285183146617384,0.0023077893530242654,7.7652113872369295,1.2390323249070234,1.491486320542463,1.870316826340464,1.3674672754905024,3.314670266050677,141.25044415875254,4.910675391056302,0.0,1.5612328150048702,1.1829078367537693,0.0031969000768292052,5.264520331142178,1.2910997663345554,1.5612328150048702,1.958754413626556,0.8726038946189916,0.024408685286987808,114.01540329052304,4.701497531650664,0.0,0.4799957264728605,0.3988802757469028,0.0006495141096800796,2.0814121115500743,0.3761160323760409,0.4799957264728605,0.6241004500976861,1.2513514600732536,1.4375041837450766,130.87989347611818,4.837798683656596,0.0,6.4463617115941965,6.115531089061459,0.0012852961855280608,30.866311412577005,4.726741268816271,6.4463617115941965,8.885679479813849,1.5389764572952025,2.357847192890058,97.0316080259167,4.519733511751983,0.0,1.7903254948686176,1.4255183376417073,9.102685633663107e-06,7.0679270916103505,1.47812521967513,1.7903254948686176,2.28852963898861,1.037815084894864,0.8315431042637025,100.71729925992182,4.4813088587316425,0.0,G2
1.2696893066962633,1.0012904651125798,0.0010424395235580104,6.714861909922165,1.0947531656591543,1.2696893066962633,1.6170014010705753,1.54160544468911,3.942841287066729,137.99237133833324,4.847779437655145,0.0,1.330681259101562,1.0118390123714662,0.0010813340617934417,4.639346539669567,1.0615611558605604,1.330681259101562,1.6716850182618086,0.8410411233965815,0.0006113509492813307,122.2678171818042,4.757143262351188,0.0,0.6091560178331062,0.43307715131512803,0.0008191270939506348,2.5531980406403885,0.5360607782962015,0.6091560178331062,0.7474134552264321,1.1626335114398834,1.692035611225677,125.81407322316392,4.751319464821188,0.0,1.489818631043876,1.1090561768214686,0.00040170487107317465,6.9405003695116605,1.311823753351367,1.489818631043876,1.857300502544298,1.1168957072029246,1.8649646722771864,135.23415297747871,4.86199396278038,0.0,13.803924041284775,25.10216280646272,0.008482105377795479,148.53658294599197,6.222745232272137,13.803924041284775,28.647284277915773,3.566817127094123,12.566094287593627,150.482637336392,5.064051784327926,0.0,G2
1.446734153149311,1.129942544937608,0.0004907048648439792,6.513893352583135,1.2265964386437989,1.446734153149311,1.8357041877025646,1.0593556435143725,1.1722292633598856,121.20701046709378,4.773348782654355,0.0,1.3030690406716896,1.096330748858792,0.0007201420644431106,5.009071609716276,0.9877005443356468,1.3030690406716896,1.7029180942283506,1.163705136586025,0.7977273972351608,132.83986350791972,4.832270991326619,0.0,0.6044806315727299,0.4548249172740098,0.0007572589504481041,2.1273537474079225,0.5014201066085817,0.6044806315727299,0.7564803628118024,0.8103671094564137,0.07660378555356528,119.57008154496474,4.732465278654132,0.0,1.5503560573494015,1.2515226235716836,0.0009881322285808496,6.049868302446802,1.2353749477892446,1.5503560573494015,1.9924639976350211,1.0046068585835637,0.6549444433275675,139.7977240200556,4.908783472957576,0.0,13.177198917516547,25.48475453692473,0.002434662355146444,156.39230847095038,5.499877574865134,13.177198917516547,28.68991608769717,3.651558556297178,13.140351941363921,143.10458818235705,5.049103519547091,0.0,G2
1.2174556299877057,0.9947939584338722,0.001822964129171857,4.839648053188652,0.9774425937421196,1.2174556299877057,1.572200124260679,1.0989484382733916,0.8678307655219326,150.01574909492487,5.016008852895202,0.0,1.2460377022678946,1.0948067944838,0.0006595832938390459,5.444420581300046,0.9390964219827309,1.2460377022678946,1.658677748304639,1.5268967305244352,2.2260216898268697,107.64933208379671,4.667348833463675,0.0,0.47336980219950703,0.3691270144822645,0.0003875944799001253,1.792107427699104,0.37955509742653987,0.47336980219950703,0.6002780376250578,1.0589190185009962,0.7956502427168992,135.15478912887158,4.872654776314118,0.0,1.5166773733121504,1.21220808702416,0.0010413517543517332,8.05207673650381,1.263229905748514,1.5166773733121504,1.9415866452372958,1.603326762247296,3.988205380689249,130.00114371919074,4.842616549635558,0.0,13.080199541076388,25.403043132452694,0.015339394776796269,149.3206308264627,4.746762485138806,13.080199541076388,28.572823109094887,3.5156100970096897,12.074423941596152,144.2499207885022,5.019049086981125,0.0,G2
2.335064632703529,1.8738404566884326,0.005597424929471628,11.970903844645651,1.8713453244046359,2.335064632703529,2.99396140523307,1.5217736510322024,3.478603011280537,151.7514236005962,4.974724589942993,0.0,1.8932122433472467,1.5488862986610865,0.00019424649037175223,11.370775105067919,1.5661073316039698,1.8932122433472467,2.4460787731673634,1.8506135707539517,5.857156714834328,147.68945861518839,4.979795340380999,0.0,0.7923536439351442,0.650488235840639,0.00013595937540933356,3.431449169741433,0.600583986423783,0.7923536439351442,1.0251630319243705,1.0355982674744209,0.6538366069493096,156.42128766043413,5.026319294122221,0.0,2.1033407011188014,1.4100999992845789,0.0034228166051415952,6.628220545793997,1.8832275057266328,2.1033407011188014,2.5322764685091754,0.5595750050723272,-0.3369980427148622,131.01374205815117,4.808075670864433,0.0,2.470336587763459,2.0609854908432585,0.0015831524479131623,11.319464184722937,2.0014548943363453,2.470336587763459,3.2171764095724122,1.2706906435336494,1.7857125927421276,119.9848465657742,4.767714293822784,0.0,G2
1.9992577117773151,1.704617960720437,0.00019624985655481916,9.89476637632238,1.5412368178701763,1.9992577117773151,2.6273092300130503,1.3972275518314174,2.384377069876149,142.85401121251004,4.948119674391027,0.0,1.8312729415182099,1.4360016874514474,0.0004311523828170877,8.520139913983169,1.5780291985121497,1.8312729415182099,2.3271573717091334,1.0244716262753137,1.1214962785672196,150.42752245649504,4.962789839905388,0.0,0.6046455695856485,0.5783918550572984,0.00012151011328798839,3.54690248783894,0.4332933913849464,0.6046455695856485,0.836739746167335,1.8222884957046173,3.9077395702532733,143.4569892972912,4.959746200279056,0.0,1.9574168807586823,1.5781982528097949,0.0027106045742596938,8.41781192095257,1.533029190342007,1.9574168807586823,2.5143966612789916,1.0460131339835295,0.7536484896449975,122.83244354785306,4.766329378884471,0.0,2.428300523332283,1.9487483477899048,2.644480533563892e-06,10.836542474682172,1.9659204992654973,2.428300523332283,3.113561233480036,1.096143346000975,1.1343328864249607,147.3345801504556,4.971918563914328,0.0,G2
2.1872293326271928,1.715022272332625,0.0012564140085949138,8.927686115083592,1.8109789121656323,2.1872293326271928,2.7794376316265414,0.9648738398742519,0.5369646572259783,149.19220958882562,4.964975029940457,0.0,1.9365539951218156,1.4258002849409732,0.0051185992578675205,7.784594047582632,1.5680958676056278,1.9365539951218156,2.4048176289606715,0.9294009901234966,0.5668525058852989,142.04796882898245,4.87329041128904,0.0,0.5396760249797871,0.4736713048062768,0.0008332109874860192,3.746973725226368,0.433950660526191,0.5396760249797871,0.718063170574055,2.1752392228207897,8.002320675324455,157.41799211338417,5.0518312246086206,0.0,1.9778122240591038,1.6206752494087353,5.396306842905818e-05,7.462677138099746,1.57686443636253,1.9778122240591038,2.557015732779852,1.1946291880451476,1.059336894352099,123.62241320331441,4.795054778996815,0.0,2.3372652721922043,1.867311261828734,0.0004487031050504353,8.167256161320358,1.883771499764279,2.3372652721922043,2.9915982853899545,0.9286693470020739,0.08279434778491623,146.7641871932171,4.942669721418462,0.0,G2
1.7432485465301308,1.3001644809072272,0.0009665115381598949,7.005126640548689,1.4521552528711676,1.7432485465301308,2.1747053070225797,1.072684830210348,1.1521771035233161,149.8116241566483,4.953885714755993,0.0,1.5456050996745003,1.085288088248654,0.0007552219147222705,5.067128898560128,1.2974761386006572,1.5456050996745003,1.8885828969452836,0.7576797167432847,-0.1207287674956512,125.27706348257222,4.749154864097039,0.0,0.4467729864137435,0.3416472150494697,0.00043897467763641656,2.1038778025956884,0.38496511789087823,0.4467729864137435,0.5624312588575724,1.1166795534690959,1.6502718591556613,119.87687673405516,4.754243323103047,0.0,1.4317252070764699,1.1655103256885608,0.0025017453713518083,6.330635471356918,1.162882448475006,1.4317252070764699,1.8461450072691519,1.0898313442618088,0.8784611967835727,133.785529910573,4.884628392904009,0.0,2.0604977349890996,1.6771752881975655,2.8930845326520516e-05,10.384655097749414,1.6930455498773165,2.0604977349890996,2.6567965415582346,1.5022044659023113,3.2437722515182514,115.44961075138214,4.725832754405209,0.0,G2
1.9861262440390637,1.52401337339663,1.9944574707694233e-05,8.696352006922133,1.6774298516777484,1.9861262440390637,2.5034604489690855,1.2091601439531128,1.87875325617878,121.87911384465524,4.7478270446337,0.0,1.6209495827234888,1.276803073437342,0.000735004467397831,6.344877121309751,1.4059954570452666,1.6209495827234888,2.063420373571632,1.0425293949463261,0.8895890918818119,111.34459567011419,4.620274144337185,0.0,0.31798417633901327,0.2602955431295303,9.910706824348137e-05,1.8291640958443902,0.2605553550768102,0.31798417633901327,0.41093516054859297,1.6530875389932984,4.459875725072521,139.8870048277093,4.8854316971812635,0.0,1.6247592209289061,1.3607618216969868,0.0013648456857644625,7.376360180542213,1.2970900749925798,1.6247592209289061,2.1193195279102226,1.3128297119361014,1.785421337609188,116.44165238382081,4.742511050701023,0.0,1.9122522181997856,1.6264450990483044,0.0004351776195330448,10.688082656676379,1.5094376156231295,1.9122522181997856,2.510384872131811,1.8315278172179386,4.38002522095153,119.24020499954,4.760141646683014,0.0,G2
1.611725722217496,1.3151809914584942,0.0006994598039587081,7.2708218587996285,1.2817030497487512,1.611725722217496,2.080230959281026,1.1794481259980278,1.4534620967694591,146.69979806507774,4.9748176567965805,0.0,1.7237181631482659,1.3660482274421628,0.0015295891635652287,7.7431150440870224,1.451258529855302,1.7237181631482659,2.199384474271178,1.0620590530423892,1.355022969535967,136.03852339228862,4.862311198395979,0.0,0.4519776259415788,0.34845656636946243,0.0007250023064628427,1.7539923623846232,0.38698877448351277,0.4519776259415788,0.5707063632007104,0.9812357435525668,0.7345680046389633,133.3371567954959,4.881390925619929,0.0,1.5385263291136826,1.2302591522552224,4.349192718292039e-05,6.595671279748246,1.2934212711719781,1.5385263291136826,1.9699240714006625,1.0477032836556037,0.8396056405252104,117.0809333887444,4.697243272838231,0.0,2.099224345495607,1.899138572929668,0.004122429153141137,11.821703044467199,1.658433538395898,2.099224345495607,2.8308073357102206,1.9645850986312345,5.857565261881955,114.92972859817382,4.709409376179912,0.0,G2
4.232826428282473,4.002454141652643,0.0013267125313191075,25.033430968936347,3.129021731823979,4.232826428282473,5.825500727662726,1.8747392184404201,4.4225206992052915,127.29659014899184,4.835002008495673,0.0,2.6245871106919165,2.1289678960405096,0.001193485702322153,12.800431075251211,2.1013480804321247,2.6245871106919165,3.3794913528490196,1.404966698453576,2.741365569095568,132.6103105853907,4.877846697702231,0.0,1.4051665562497224,2.066790789599374,0.002361669504128021,15.326751345366466,0.848433382221027,1.4051665562497224,2.499223323109703,4.241237821131038,20.92032138196464,144.98041217172812,5.043572474538784,0.0,7.404830351557788,6.6856580312465095,0.016556342398799093,34.53912561097078,5.519674985381345,7.404830351557788,9.976449059967297,1.5055473332392322,2.253472555783696,118.2271584324191,4.753086076120651,0.0,4.7047292845072315,4.172440007043555,0.0006103110910731374,21.968839503967818,3.531610925963191,4.7047292845072315,6.288380813283938,1.3516479801311352,1.5765704036647294,119.64778541878437,4.721906251462305,0.0,G2
4.4938724567831985,3.920050936910563,0.00432932601438029,24.880280120673493,3.2696881134292397,4.4938724567831985,5.963362223260302,1.4591571889038317,2.7409483208313494,129.08444299154613,4.86322148220945,0.0,3.0294184904358703,2.3491442250897863,0.002695074862128416,12.427448740357688,2.46803401409747,3.0294184904358703,3.8335173118778845,1.1957992423223136,1.4711950280570099,140.01969437497021,4.897544299305125,0.0,1.487311239739034,2.1272608284692387,0.0005167410008566908,14.921141662356261,0.8274283952980424,1.487311239739034,2.595637369933191,3.6817967649713896,16.248979299173417,135.0986922263913,4.9641176627057835,0.0,11.706238630653548,9.18804979669561,0.0007379292257653977,56.601625070295114,9.870121895818942,11.706238630653548,14.881407256854567,1.3374243673484838,2.362891692692636,121.03665301743433,4.718322413054414,0.0,3.7089364359976575,3.986293849974014,0.002315021365812367,33.489918866418655,2.7752635240903825,3.7089364359976575,5.444882748472335,3.4255130796855533,18.053858437392964,104.32153386377493,4.704312677617167,0.0,G2
6.734290489363384,6.655039343569061,0.010378622634955592,43.89384859230485,4.681932095323892,6.734290489363384,9.467851765822184,1.8259969297982026,4.503585122642617,135.90040416330174,4.941678692175367,0.0,3.495794076988988,2.9169455527396204,0.00535927462590037,16.36294647268961,2.7105363499986126,3.495794076988988,4.55292736449405,1.2305280349113403,1.3912558077580357,131.40332339238188,4.836976606264588,0.0,4.013613423996993,5.437765957284467,0.0003806395490134895,34.91077621519378,1.9220331589982709,4.013613423996993,6.758579090570054,2.3240394505663575,5.632278329356183,144.62302011717432,5.0182843059937365,0.0,12.585253036673258,11.31653797698854,0.04061549516032725,63.17805161999933,9.650570703247883,12.585253036673258,16.924911396569183,1.5848007049501531,2.7616404399367322,128.70781676283576,4.812204000344444,0.0,8.667295599257553,12.25931721259795,0.0012630750034162141,118.07334249924068,5.374329266800055,8.667295599257553,15.013756076478987,4.847674384101882,31.491848058437206,134.80988157204152,4.967289006415454,0.0,G2
1.6269922100542,1.2975056810202115,0.002278629623605366,6.62120428510611,1.296337879213742,1.6269922100542,2.0810152915960933,0.9261130796935013,0.36999680784291433,139.55021241185986,4.9063917990272845,0.0,1.6132307891348339,1.29170754973508,0.006641541659350769,5.999053072545292,1.2565902955131532,1.6132307891348339,2.0666451008954594,1.1126687378334257,0.8035098950154884,96.78658358884226,4.520350302405238,0.0,0.2613129764010474,0.29495833407383204,1.1930116968039044e-05,2.087073755244444,0.16782422220854712,0.2613129764010474,0.3940620388659438,2.558022672166129,8.85431262886158,127.88075460807698,4.920160344853638,0.0,2.5256487693187,1.8330492582976678,0.003916155287996423,8.377605564988858,2.110300833658178,2.5256487693187,3.120732492429733,0.8413901112563034,-0.004729274522382809,113.09369910417621,4.579736513011261,0.0,2.225438689774264,1.655273607626421,0.004396310836866656,7.1080858800692095,1.9105178036489479,2.225438689774264,2.7735371059441007,0.7765576280134222,-0.09534833442503476,103.28487744583403,4.503428870985543,0.0,G2
1.6910411485622519,1.4641502692431247,0.00021749736269571773,8.685663399589654,1.3778608537109942,1.6910411485622519,2.2368183156115866,1.4802992607600776,2.7936092661944825,127.01640367835785,4.821978651521661,0.0,1.208723692807717,0.886844447585824,0.0012246549264859907,4.044790295211419,0.9966472644391576,1.208723692807717,1.499168449430727,0.8239852039827419,-0.020908607491784803,125.45095091765444,4.750236318282171,0.0,0.38317041397674095,0.31857831136917225,0.0006113416899775556,1.5629640489217826,0.29031489476730626,0.38317041397674095,0.49830884662219305,1.17570713167309,0.9911878208466991,118.67229766301402,4.78026394304167,0.0,2.7534189352214207,2.0825596634966654,0.0002502521737571817,8.910694623556997,2.3207712545371546,2.7534189352214207,3.45229931854977,0.8393934735369339,0.00624786079635431,103.77590382036428,4.508528245879485,0.0,1.8914176066031991,1.3538885970495138,0.0028810027246877583,6.646267086446848,1.7072512538947184,1.8914176066031991,2.3260427545058744,0.7845331980438629,0.14056096135128726,119.82791960061195,4.642430256115242,0.0,G2
1.5838994582993642,1.430571720676433,0.0036086052026219635,9.29428536990382,1.1990128408016445,1.5838994582993642,2.1343085395509593,1.725595794689676,4.05350548634009,139.31052881553146,4.937572504125133,0.0,1.1177812330279675,0.9694523159627196,0.0025731468975532606,4.7372050565059665,0.8297252973687139,1.1177812330279675,1.47961909890181,1.1019709944777556,0.5384733083905009,115.57682431120327,4.742660901976704,0.0,0.3598324235776104,0.28348890020766654,0.00023937296498880573,1.3371941986464058,0.28184791124842745,0.3598324235776104,0.45808877916697455,0.9848888770841293,0.5118093011263927,119.36504573894219,4.767405385525318,0.0,2.841621841462945,2.1211494656512624,0.00044034026602202125,13.564039586549088,2.543421151780084,2.841621841462945,3.5459962980115898,1.3441086287133037,2.941208593905695,105.13062758921035,4.551283039604745,0.0,1.4969408029608315,1.254107317827146,0.000942198429525698,6.511559280173331,1.1395286783893903,1.4969408029608315,1.9528484150585312,1.3307811529648053,1.675572268191793,113.40408964790316,4.670867662790636,0.0,G2
8.18833138463271,8.112629462041895,0.013515788358822112,51.63948704788686,5.516346031049179,8.18833138463271,11.52664424943145,1.990859768510688,5.241584688614745,111.86400910148872,4.656307159553101,0.0,5.387059616012348,5.117077728054942,0.0009107995602333843,29.05971233172102,3.564357868282657,5.387059616012348,7.429999716112177,1.5647112192618766,2.9393785998597437,108.68069110786628,4.664734715512756,0.0,0.6907839062533878,0.6693780809147819,2.4976189712378957e-05,3.9691272754476192,0.49629072475004166,0.6907839062533878,0.9618988618081662,1.938191431362528,4.821214053203636,147.9047201150173,4.987653324749197,0.0,5.027039203555768,5.128492178821543,0.007588574756104549,32.49545220308612,3.450705131018423,5.027039203555768,7.181403427069137,2.1522283309533305,5.863708677669054,99.7792252723782,4.635493315830531,0.0,2.6399077628569976,2.091819931056034,0.0016853516315638861,11.51508756903379,2.190846768834774,2.6399077628569976,3.3682077757103874,1.0141378297214358,0.8162075796206505,109.00392030024074,4.630079628899384,0.0,G1
2.4961812739346527,1.9116326487652195,0.0007845114987812345,10.317397575229627,2.1150337933127745,2.4961812739346527,3.1440833856892465,0.948662952953781,0.5848896671399682,141.50386187951995,4.904455429493516,0.0,1.6256843957853024,1.4148837445545583,0.0007939441707304901,8.030768709446434,1.278196111232928,1.6256843957853024,2.1551672244409605,1.5925732621885487,3.247903924854864,128.63217482587385,4.828708618975362,0.0,0.4125928598324009,0.38502181134368857,5.026556668776103e-05,2.358619793808512,0.29880099659516735,0.4125928598324009,0.5643355944781917,1.591761621976451,2.91828539842544,131.31242759427715,4.8595701095545625,0.0,1.615961110074108,1.231564026402002,0.0019460024653777247,6.3980346456925385,1.3577421047731066,1.615961110074108,2.031767767339431,0.9492535293344916,0.5632592129186169,136.6199781403394,4.861344628998719,0.0,2.3840493952887347,1.7025587045694037,0.004478820902450258,8.042586824727618,2.032606523894312,2.3840493952887347,2.9295729486875093,1.0670550850718514,1.0268980962282193,138.1697204097107,4.802219948633438,0.0,G1
1.844230609638345,1.6298067224890962,0.005705552808909425,10.607913533988862,1.478584842637134,1.844230609638345,2.4611900564965867,1.8074049521955773,4.536184174815011,143.93223292416852,4.978060480285336,0.0,1.4893483673524361,1.260933637545818,0.0010031918370741882,8.133802911119751,1.1026441197964436,1.4893483673524361,1.9514384944522067,1.1734005649869572,1.9445306402538636,127.06282800570153,4.846783066537806,0.0,0.43171794474087394,0.3827736809607739,8.12340544769502e-05,2.0706871505837663,0.31057892077245985,0.43171794474087394,0.576971467793291,1.2301084013300263,1.2605296304853386,126.8630794500865,4.831244706620638,0.0,1.7090462021417183,1.340019904374717,0.0011044208749745512,8.527310878444654,1.413787325814027,1.7090462021417183,2.171748665286906,1.0345772655637187,1.6127979493051177,123.91167664962731,4.7599897374266416,0.0,2.37166912162645,2.0114506917186037,0.006647691530514067,12.13773347149672,1.8246636996406749,2.37166912162645,3.109782678531029,1.605028437548201,3.5060267740956252,89.44323681896326,4.4573618245434705,0.0,G1
1.4163418721047643,1.3164413503248331,0.0007803564734630841,7.524250119511036,1.0234875454333634,1.4163418721047643,1.933660292689049,1.5578070790501852,2.599151803215748,132.12618941726134,4.850379386435523,0.0,1.391835742684433,1.0935970954918277,0.0014124656351457536,5.104524189509457,1.1492944256644053,1.391835742684433,1.7700738238508835,1.0053679048776694,0.5564157354891002,113.29967946513467,4.6827310827521,0.0,0.5971490875527181,0.5276137487765556,0.00023574669681960224,3.268353845595544,0.4886111784591597,0.5971490875527181,0.7968458449807554,1.9129625562384047,4.992009862593516,141.14254763707493,4.9113052414178995,0.0,1.330617717131951,0.9932450205903774,0.0003360663855788634,5.1155748638762475,1.1517718288713765,1.330617717131951,1.6604454763927132,0.9365658833949095,0.6088602751799974,129.82979903732078,4.816856099153478,0.0,2.818166220781361,2.3242717396226262,0.004392855930930528,12.998196082408453,2.20119691963907,2.818166220781361,3.6529850762850766,1.3664417293930502,1.9467180938135762,96.616098625864,4.499165886015526,0.0,G1
1.579709396681226,1.1335064149131875,0.0003376861845410424,5.459863315101977,1.3469611295213029,1.579709396681226,1.9443041353173918,0.9207697099533337,0.4299913427832873,144.68102000456452,4.888964586289724,0.0,1.4780306220384374,1.197404433942854,0.0006854468678142434,5.963069677446291,1.1790051033548763,1.4780306220384374,1.9021965981752087,1.164973709985613,1.0466294697583693,114.84446130062148,4.675291634504567,0.0,0.447101853639625,0.3887711739691579,0.001592854538582559,1.9723401765308517,0.32948071453679073,0.447101853639625,0.5924888971426772,1.1138346039105718,0.8847334480821032,137.8170706756978,4.930954045106754,0.0,1.378972553891529,0.9916819866619819,0.0032495433902942766,5.126259459799344,1.216396382049103,1.378972553891529,1.6985283238898259,0.860453116836149,0.4134097813593405,135.34977698821896,4.809180034402973,0.0,2.053867628263877,1.7835234830188729,0.006379580534279271,9.709741855707124,1.560410707655703,2.053867628263877,2.720170628638956,1.3797819433528742,1.914227017905982,100.47282911185958,4.587876415632738,0.0,G1
2.0118011317351803,1.8531400443777533,0.004829319753136996,11.556414631064493,1.4733199541687443,2.0118011317351803,2.735227927929834,1.648840624828059,3.1395430162103812,169.50769409817084,5.128154149841519,0.0,1.5674121490548574,1.3105486274033444,0.0005675779266058958,5.887238769923469,1.1402859500542661,1.5674121490548574,2.043114913506716,1.0904860153033402,0.48671278779756877,132.84036648598493,4.85686380726864,0.0,0.5062595315660786,0.3994877623298827,0.00011172698210092091,2.042995989290537,0.4148783966131803,0.5062595315660786,0.6448947088888559,1.053895065562628,0.9319632115125902,146.6115636486317,4.936523729047325,0.0,1.9855807854532548,1.5190920758759492,0.002329475809221611,8.383787427999431,1.6442799689119971,1.9855807854532548,2.50003435787396,1.2969997294591658,1.862169760307304,117.72411720230801,4.715553530740357,0.0,2.399555048945194,1.9310885527741626,0.00010537093910162332,10.458619155116441,1.8664215258389931,2.399555048945194,3.0800921141377864,1.261944659862862,1.8119972984275892,98.17258123370641,4.4920903223860895,0.0,G1
0.7729380659518015,0.7089700654137258,0.007579040116394776,4.518945280424607,0.5947287870728406,0.7729380659518015,1.0488430804701216,2.1816217760805388,6.390329959445957,127.15166572146559,4.8242913261945075,0.0,1.3704743640310866,1.0605862583117942,0.0005584268266152284,4.866522884702116,1.1735264613400815,1.3704743640310866,1.7329290792719196,0.9486022684874278,0.41999277638074384,106.06678960672798,4.593825387510511,0.0,0.3656707082271782,0.3142450926695865,0.00017199642275649496,1.4803057538537074,0.26477896273912704,0.3656707082271782,0.4821462901675,1.2178130171715,1.0366050979745163,109.48478069291599,4.66147975237468,0.0,1.4632032952330505,1.097556045447852,0.0025077731416648895,6.665915031306946,1.308885707437415,1.4632032952330505,1.8290962675813387,1.092065883606012,1.8229514801563873,111.73091654273507,4.63970111869358,0.0,0.6846091794931378,0.2903316332722103,0.06427745275494426,1.6259222463921075,0.6227088088664778,0.6846091794931378,0.7436277199814276,0.5076321993426169,0.1631962578916597,72.03518593953079,3.3986521164978685,0.0,G3
0.8879012996506784,0.708131526075703,0.001592246955571447,3.7830765833553266,0.7203210463872853,0.8879012996506784,1.1357019750549295,1.0651086095015647,0.8998395277616993,125.16295386906043,4.8060331716285685,0.0,1.2266342785381434,0.9314254526225134,0.0002907990790033215,5.382171503082161,1.069383912854012,1.2266342785381434,1.5401899321440344,1.1663866544429105,1.7477100648678743,113.82581853012417,4.640913553692929,0.0,0.31483229398840173,0.26094990326675,4.798616213418875e-05,1.2224210567135065,0.25880816759339614,0.31483229398840173,0.408918360254129,1.129615970463081,0.9778974651050292,124.96222858137759,4.78705994279145,0.0,1.2811645958000581,1.1502078073245563,0.00048072633226836983,6.561778025474425,1.0159522931011034,1.2811645958000581,1.7217318959588015,1.5731923464983717,3.090380022033285,114.86815444409973,4.696445639981336,0.0,0.3698224355927903,0.11181231521279776,0.0359521873276617,0.8443657406429586,0.3619337146497541,0.3698224355927903,0.38635557159309813,0.856954501998196,6.098262985421798,78.11550515752839,3.334878755717077,0.0,G3
1.185467730392647,1.0276687497191277,0.000648150724052025,5.058185845659866,0.8993752354349147,1.185467730392647,1.568896682051297,1.1892083910642273,1.0732781011394827,102.67080631827628,4.586771430787563,0.0,1.2886438997152816,1.044828474923179,0.0017424209120745146,5.483158181990282,1.0059883389770055,1.2886438997152816,1.6589965769354997,1.3054265297265542,1.485421668761334,124.72905712844376,4.784805093988727,0.0,0.2950268901436084,0.2213044958853002,0.00013568634937785118,1.1017769852572592,0.2535850169036732,0.2950268901436084,0.3688042106685546,0.8016865585955292,0.11024571901866898,137.0005746185963,4.882761662309298,0.0,1.474736348164294,1.0990580303557704,0.0009987815367040187,5.384649468683947,1.2524920895253935,1.474736348164294,1.8392324080133167,0.8206638615065442,0.13586949603543008,120.55984454431092,4.737731695941371,0.0,0.2876287582072324,0.1423222699537134,0.0011023677639666702,0.8746394919824239,0.2688367794597825,0.2876287582072324,0.3209142113908517,1.3252060498552236,3.683488993098053,115.27484722072283,4.14525828147821,0.0,G3
1.8633163203508183,1.5248596055652985,0.0007184727324080556,8.222369604094322,1.4961024108751244,1.8633163203508183,2.40772600732942,1.160567557666544,1.3358267374044202,138.71489388874608,4.893150431773788,0.0,1.5073271575997604,1.068659140857564,0.00016768980538657606,5.464861393175163,1.3798759360004147,1.5073271575997604,1.8477195456497721,0.8818491465033832,0.7134548446952569,143.703175128779,4.848637967394943,0.0,0.35067799234531766,0.31199170568732204,0.0004755485077424862,1.7359976026608999,0.26971974899971873,0.35067799234531766,0.46937605257727755,1.400643980641809,2.216703160738076,120.51103591413444,4.770885295352194,0.0,1.5632652328019363,1.2468778165951635,0.001124892493068859,7.172418391908918,1.3026101483562673,1.5632652328019363,1.9996255843543347,1.170731032130215,1.5411240872679217,136.021735925041,4.87212649175718,0.0,0.9555143305629027,0.8980103723718276,0.0006863958966034922,5.877723796119364,0.7497389458839343,0.9555143305629027,1.3112704773609678,2.213217762168598,6.909357245369318,84.07151777532532,4.3374437815386155,0.0,G3
2.6291813113755484,2.5095929433373723,0.000729140906902119,16.868858810906907,1.8792812612380654,2.6291813113755484,3.634645940024307,2.0584269909447546,5.3775167047575785,137.290931435633,4.917447950007653,0.0,1.6270731304049573,1.1932198819561242,0.008174650500084247,5.738112081832579,1.4175622216763164,1.6270731304049573,2.017706782062541,0.8126836356827,0.08864828573557926,134.40113562781028,4.78396374279157,0.0,0.3008653776636775,0.27100110389498233,0.00025585747542132553,1.5658075558789837,0.2201588985861709,0.3008653776636775,0.40492168846457993,1.7052207174145328,3.3422004144459514,118.18085446841853,4.768259745743689,0.0,1.3862650229208913,1.09809342601771,0.001441018036248548,7.175274894162387,1.1907102707282755,1.3862650229208913,1.768485195311844,1.4300964664895666,3.188718860628004,150.37421961687812,4.999258896257192,0.0,1.5357801901657828,1.0824555910213887,0.0004533668543105461,6.433691282442961,1.4069152428009357,1.5357801901657828,1.8789174806358877,0.9100399990850415,1.2047131593914209,96.28665467129078,4.457211690537675,0.0,G3
1.3410507262824094,1.0785341088743068,0.001967789379716471,5.3651620618861955,1.0711056965342176,1.3410507262824094,1.7209453432540713,1.0616545772395927,0.7910563492391054,147.52775401745149,4.957291809479957,0.0,1.5544122833475165,1.2538504426540966,0.00018861949615439633,6.6616565412330475,1.2659065876300577,1.5544122833475165,1.9970824918278949,1.1449737274981855,1.1966411700546056,122.45130800495959,4.76862415199887,0.0,0.3342090519091908,0.2785704852664344,0.0005020469696963221,1.6388999989398176,0.25895801913515565,0.3342090519091908,0.4350829870721411,1.6108481782855333,3.058975530473907,114.55328559947417,4.705815190913937,0.0,1.5945412580037972,1.1460354861294721,0.00035960847198029597,5.972162718451631,1.366367537959499,1.5945412580037972,1.9636596341892725,0.8778725201662545,0.4701657768715588,133.78836584320243,4.832777586215458,0.0,1.0800358273141675,0.9657026301478239,0.0053829637804319996,6.821961161373881,0.8321235473330766,1.0800358273141675,1.4488129479531244,1.9919481600294866,6.737506389494815,83.19948958657687,4.395766383121223,0.0,G3
2.018006578690096,1.6300668554146698,0.004796257813681357,8.140703070913887,1.6407706018055452,2.018006578690096,2.594121914012134,1.0345506767831993,0.6195693030161409,149.19179991614928,4.982259779600703,0.0,1.7601217183402464,1.2270046045876775,0.007216592951112507,5.827920597637067,1.589187300092752,1.7601217183402464,2.145592869826982,0.7410608812630192,0.043816972699350476,142.0060668621703,4.893880073745191,0.0,3.4361661938203145,4.4785988049157694,0.0013280430530125918,22.184049005633543,1.6146891313451894,3.4361661938203145,5.64491677236667,1.9973325860098152,3.355155900313755,146.45188582964184,4.972081245632175,0.0,1.6019478849778666,1.3375792827611106,0.0017164223044099924,7.725629281676753,1.2554160295570898,1.6019478849778666,2.086948816779364,1.3604744526877761,1.993314990473107,122.79554184263792,4.813273206836433,0.0,6.489780978119436,6.83912835082789,0.023131426785010428,45.10968487640417,4.254300923601337,6.489780978119436,9.428198859965708,2.14306062313438,5.8455830909467466,149.04186116441207,5.0156586432693855,0.0,G3
1.7717580458273252,1.601045535180876,0.0031369644317305757,10.268188618727956,1.3202556563420056,1.7717580458273252,2.38798521324494,1.6175467497652585,3.4086265457291134,133.85598174665893,4.897630876590444,0.0,1.8097343420580265,1.4123474873191566,0.00030389077780342347,7.4954768477038725,1.4801456641513646,1.8097343420580265,2.295618394629415,1.2137819138642016,1.5104241023520002,129.95925462952965,4.829875787587525,0.0,3.5561474747655377,4.239922700821501,0.0016118673278743556,21.81894273162337,1.918589428863843,3.5561474747655377,5.533816889925326,2.07988022749123,4.074256207128461,153.90900858798312,5.05088666705082,0.0,2.033234308975617,1.6522543100254927,0.0006983814804766286,8.122035629355489,1.7369607019548052,2.033234308975617,2.6199210026627466,1.0308969128600578,0.8311477313624089,118.50470277980519,4.687611606209585,0.0,6.291427563611444,7.301921510957719,0.0033089121342751576,44.107180850667845,3.5296251294752987,6.291427563611444,9.638470757353414,2.1831836608615056,5.618790979006285,129.62701389669584,4.895591724265131,0.0,G3
1.9442705775192524,1.7240964986719431,0.001986016251266662,14.48234622484514,1.5292727587606532,1.9442705775192524,2.598595161878799,2.5581826173854543,11.255756865724706,136.03717943412644,4.920624329544056,0.0,2.7942470857901465,2.920929300226332,0.0025186306343026876,25.872335417018753,2.1177503351211,2.7942470857901465,4.0422326446368,3.3934063201135523,18.688790734199436,128.85977693517995,4.897424867807678,0.0,3.080044951995103,4.706732462255886,0.0015125196752727409,40.78273244271027,1.3622577726135154,3.080044951995103,5.624945099959986,3.613650364554956,18.13004381543103,146.97629838061528,5.035829347417628,0.0,1.757020517806881,1.4287484914240673,0.005908676508750044,7.542321267326296,1.3668903350206796,1.757020517806881,2.264606666010879,1.0849413012641804,0.8457192394977673,129.4661279525937,4.807100158369893,0.0,6.323141911417238,6.777230504747863,0.012513488526448551,48.61828385167944,4.417659460826354,6.323141911417238,9.268925339347936,2.6493461102883815,9.492595636067351,128.42893043619196,4.866720128960671,0.0,G3
1.3183222607007479,1.0871638621524002,0.0014267028883425542,6.184023804159502,1.0961946177720736,1.3183222607007479,1.7087711509237433,1.2850209285291443,2.0845427463950132,138.70510899378328,4.898564470499208,0.0,1.1734375101537962,0.9998379992944544,0.0010448745598777166,5.8200712368351875,0.9506674563266742,1.1734375101537962,1.541632775685921,1.495985229955329,2.944976008270455,148.4315181372913,4.9519078898469955,0.0,0.40513531345715487,0.3053977589237637,0.0016054215655336467,1.6659997450068087,0.36067195980267386,0.40513531345715487,0.5073484141748,1.1096834762521655,1.4160649395852358,129.0644034026278,4.834032756389769,0.0,2.3150076112016715,1.78356080430048,0.004242586796196407,9.22731910081431,1.8642792912528492,2.3150076112016715,2.92238761675426,0.9001078014690057,0.3088418591134712,136.37827082524285,4.891718792796716,0.0,1.068853681942837,2.3043391519367566,0.0022995125020692214,23.091654708854417,0.3577180009481483,1.068853681942837,2.540162813788,5.795948924494069,42.666583642478095,108.1326200785431,4.8266309240094785,0.0,G5
1.4400739774279647,1.219153665753178,0.00010274758276337774,5.781038373506824,1.122102209690508,1.4400739774279647,1.886835637034824,1.2929327790333642,1.4469678575004323,145.23690249616527,4.95573915663119,0.0,1.247709497630392,1.0327463795784937,0.0003031930294469451,6.473698949035383,0.9877240085131487,1.247709497630392,1.6196740644369072,1.4945572369377498,3.1226032562156982,139.11674612382373,4.919854275182351,0.0,0.40446964348079884,0.3720444852027573,3.6458208464410294e-05,2.8382270530567006,0.3165148228930175,0.40446964348079884,0.5495569046670865,2.486348901671645,10.19262121373845,121.37996225841543,4.794448167542788,0.0,2.038402430658164,1.7055019800727218,0.0004678217280650876,9.494142952649442,1.6152241793838806,2.038402430658164,2.657785069065045,1.307004967110784,1.9085467036946193,157.3013115956749,5.06355231562169,0.0,5.384385151898113,15.99767692910476,0.0003032886124961689,163.8382904295853,0.7364219376477796,5.384385151898113,16.879492604696132,6.078080354847824,45.16357813513798,145.6099258810075,5.1311111887064,0.0,G5
1.874134537060329,1.9042223367945423,0.0001990278583853533,11.563881594630264,1.2797876850346461,1.874134537060329,2.671786475553314,2.0311215416901662,5.087274467033417,138.49885142691815,4.95080420225905,0.0,1.408051498032658,1.0214162251738148,0.0007836914562096581,4.61465905569697,1.2347547900308307,1.408051498032658,1.7395114619226677,0.7827385371838175,0.013603532036131405,145.40948729416053,4.9054450260345055,0.0,0.47944556694815155,0.45778422494538457,0.00022065612544321447,2.4303222372940705,0.34454813850723004,0.47944556694815155,0.6628985203446158,1.6928947488990436,3.0957963477042814,122.92841112805053,4.815380515683009,0.0,2.271014918975488,1.848600806591384,0.0007342506232982798,8.47111592027419,1.7964574543054854,2.271014918975488,2.928281698255746,1.0395141154560936,0.5455480681992761,135.73332731880828,4.914984310136734,0.0,4.96719591743381,12.429424461499782,0.0026359753836962957,121.67794141993447,1.834712302488661,4.96719591743381,13.385201818661542,6.6320501060926125,50.01242358629446,135.50028530638227,5.0960644080243895,0.0,G5
3.075879584428703,4.899353149140549,0.001344325422002357,34.296538998074574,1.2879477854104833,3.075879584428703,5.784867889407563,3.0676478810921854,10.632992508878107,139.5894022080805,4.9285103904747425,0.0,1.5775823048981457,1.5724680728482667,0.00596784981489859,13.993171797414155,1.1901139799173213,1.5775823048981457,2.2274249187918516,3.3337498440045485,17.53877418856784,151.53111485744125,5.002346129401687,0.0,0.7382797798281571,1.1215947269688342,0.001550822044285259,10.756798500700707,0.427397365786769,0.7382797798281571,1.3427701831912287,4.676583847627009,28.98215449519151,128.24375390355476,4.946134990758054,0.0,1.4609487403989974,1.1938759172845075,0.004254410183455747,6.2478806786676495,1.1408021263125132,1.4609487403989974,1.8867196209149202,1.2785268319037035,1.7006819563635602,116.55850911194368,4.754335955446659,0.0,2.8403347619662704,3.82204904163411,0.00015477607826282647,25.27358511191189,1.411900197208292,2.8403347619662704,4.76188622676878,2.8594470454504113,10.296100225296003,109.19124274786068,4.681905584891293,0.0,G5
0.8700216163437914,0.7122251091572351,0.0006048898543669912,3.5803654591484095,0.7036436649079918,0.8700216163437914,1.1243674750807666,1.1152141854046382,0.8399281871889084,127.30900051557124,4.817539643341471,0.0,1.4014744871187732,1.049416999671407,0.002335663066818523,4.90725626531801,1.1595034976941117,1.4014744871187732,1.7508303108080363,0.7847601643597993,-0.10123241031841568,112.46030748180499,4.645606343156819,0.0,0.3141910437627202,0.2523191976868578,1.990603884051336e-05,1.3860004131214871,0.24930855648411748,0.3141910437627202,0.4029652460225908,1.029749073553839,0.6224617990674615,124.6390599618893,4.7997448257538,0.0,1.3897961192799853,1.1293001794945718,0.0014457950809702719,6.749100232434868,1.1503517384834143,1.3897961192799853,1.790768591575187,1.3029068862506346,2.141417908649351,107.1953145569138,4.633828167491606,0.0,0.9214182646012182,0.7421446874817427,0.001708823899795113,4.676950744564567,0.7468947712585685,0.9214182646012182,1.1831273623317542,1.6106988962912758,4.139952664981174,115.45574411057027,4.595718387169587,0.0,G5
1.086452605034597,0.8761124812828959,0.0007148150486288307,4.845323723422268,0.8660964061300109,1.086452605034597,1.395690632929137,1.2289655079675927,1.6269810390923514,124.86280648972861,4.776215264114387,0.0,1.2194932277871127,0.9608296541676672,0.0002572830679198196,5.3827620660671,1.0223424168962847,1.2194932277871127,1.5525325622822184,1.1956434572400743,1.598340462715976,112.8381494422483,4.6576397303299535,0.0,0.4222877774994723,0.3308764695677659,0.0008158073519354408,1.5707178154108972,0.3431661377343901,0.4222877774994723,0.5364757265143247,0.920668947756857,0.31962290401594107,126.55674284781522,4.803638512460217,0.0,1.366247519908857,1.095968097571607,0.0018710332040086652,5.133286036588281,1.0789517420800774,1.366247519908857,1.7515074526109875,1.1922212816484714,1.0068041254269424,112.1417913148005,4.672882328524967,0.0,0.8608298143677185,0.5639787683953076,0.0017600979020628627,3.0599963215131387,0.7700539327573268,0.8608298143677185,1.0291258526074685,0.8622035694446644,0.707949302710289,94.19152619758883,4.354122906756288,0.0,G5
1.3664868936774606,1.1397929449745623,0.004584198288189765,6.706685337795808,1.0825853980130224,1.3664868936774606,1.7794421564091543,1.5173432512203564,3.2202750831409457,122.4373291725407,4.736765010252682,0.0,1.7591500106868458,1.2672459052021592,0.001249367177037608,6.183887339754048,1.5103262210451385,1.7591500106868458,2.1680684823942187,0.8102608887709198,0.2325512894295212,112.33812632003652,4.638916241514659,0.0,0.43050561858298636,0.322269539704491,0.00014172004472537414,1.5034910725197783,0.35201978504971465,0.43050561858298636,0.5377664398722406,0.8234539634857044,-0.13990259095486124,118.96813471943847,4.683531999878639,0.0,1.305936859936694,0.9902304243028508,0.0006063914218345512,5.983198921120323,1.1003639857045335,1.305936859936694,1.638910423225234,1.132081531975422,1.759278187265898,121.48880741448475,4.7190284842578585,0.0,1.1143202971746222,0.8846058419622195,0.00021958817572519974,4.5154521746650325,0.8951982125215255,1.1143202971746222,1.4227569083750835,1.0643898253429445,0.9984957605044671,94.14556808836795,4.494938469028419,0.0,G3
1.1564276164536231,0.9240550398800216,0.002093710460726277,4.718682228302844,0.9066173527520314,1.1564276164536231,1.4802711065288943,1.199392834983359,1.354412540297493,118.97692783405333,4.7195427602400395,0.0,1.261529221231499,1.0107336461308936,0.006202512244379926,4.970527860428968,1.0088946913197336,1.261529221231499,1.6164895543869136,1.2172617256641112,1.1977002940158172,116.05364137549793,4.684974347894525,0.0,0.45373907823363746,0.33633953341831024,0.0008207152344702293,1.9567583006804339,0.3959127114793305,0.45373907823363746,0.564803888846702,0.9669609279132383,0.9175166854959871,123.08035096614284,4.75924901035354,0.0,1.2559534776454422,0.9816650082263695,0.0014416964289037245,4.585288166641403,0.9605139683469759,1.2559534776454422,1.5940782058562115,0.9749929839584409,0.34374914277134616,116.11221179778755,4.720318689977979,0.0,1.245276453359691,0.9826409858389454,0.0016034927973650956,4.232070183139956,0.981976052589673,1.245276453359691,1.5862839444256585,0.7289568512474279,-0.402525547901011,100.20104858113045,4.5218905606820865,0.0,G3
1.183483290399007,0.8922256283562205,0.0005693753009904795,4.416805516883546,0.9963315067947145,1.183483290399007,1.4821266040893109,0.9628394220833736,0.45357043376463047,111.6752733357526,4.654717379556181,0.0,1.410802743844216,1.0370070365131634,0.001769142439173468,4.682204534520087,1.1819309897536519,1.410802743844216,1.7509277471718194,0.6195331313786929,-0.5639461499659597,113.14074576111933,4.618859984711497,0.0,0.3719041709969719,0.30598320478328717,0.0005253769160031157,1.665247565666334,0.3016251731542344,0.3719041709969719,0.48159986920097464,1.165171390360142,1.478866904082806,128.26805312269042,4.800239898729388,0.0,1.6655725939071027,1.1604363266699271,0.0009338195681732097,5.9228520390949,1.5288950196327054,1.6655725939071027,2.029961707478648,0.6584390050401362,0.013816912288322047,109.50829489909033,4.577327999708008,0.0,0.9473154887410873,0.7071323865370308,0.0010455306949350152,3.8327015566850804,0.817193234138589,0.9473154887410873,1.1821348684893453,1.025574525238534,1.1454354862779113,113.18891200720365,4.6115231264243,0.0,G3
3.222313054420428,2.397220682545352,0.012416189978769074,12.933251961943585,2.769303751092617,3.222313054420428,4.016213194230544,0.8669722240979311,0.31170683497692364,162.46672155851365,5.030121689114727,0.0,1.1043534298391051,0.9234440399122388,0.002037394847251685,4.5340206332488595,0.8710677479218794,1.1043534298391051,1.4395643066035055,1.0801964193764808,0.726637992317281,125.29647834294677,4.8167373733484755,0.0,0.46271269622676586,0.37751395034603885,0.0002500355436214352,1.9871112795550392,0.365357403223426,0.46271269622676586,0.59717654169878,1.2652228013121527,1.5708430153717208,138.0655571340114,4.892080165449947,0.0,1.5136843901849337,1.212136380162977,0.0007935077239105519,7.078132782916729,1.218972727105994,1.5136843901849337,1.9392047434977413,1.2399884199079703,1.8340685345599956,130.78604019117674,4.794925298772345,0.0,1.5974448284624214,1.3494517979529785,0.009261013379667884,8.517252284216365,1.291033607769581,1.5974448284624214,2.091136087149725,1.5027810266702066,3.451190718807819,119.36398466737921,4.74361819905876,0.0,G4
2.539810692776153,2.008241461224945,0.005107426642520077,9.56332802093037,2.0778991060832452,2.539810692776153,3.2378499226682793,0.9383428711792293,0.3394463085641317,147.4676409944975,4.977061872533342,0.0,0.9610779318252567,0.7612641961532643,0.002801821685990441,3.725784231680121,0.8249227763997675,0.9610779318252567,1.2260481097356615,1.069664735328007,1.0496152734385369,134.98692881970172,4.867721984281827,0.0,0.3462634667374301,0.31199322699549525,0.00025230143149541917,1.6720749986604566,0.2548131321372705,0.3462634667374301,0.46608814840981094,1.3415329104535565,1.72716170322858,144.1532524177643,4.9639770824180705,0.0,1.4765490261837895,1.12974329733116,0.0009206269037602757,5.643298195097219,1.2293117858023417,1.4765490261837895,1.8591710369379626,0.9188114440853336,0.270364533251477,121.94127110633295,4.769294017234702,0.0,1.2503981598338865,0.999829503653379,0.00027977364815331594,5.421831445808264,1.0478539146132997,1.2503981598338865,1.6009855072709847,1.25798841959875,1.6788066678779998,130.81398400331128,4.808517259611611,0.0,G4
2.6182609395449647,2.3941806699746935,0.007444319024099741,16.11416743725679,1.964385499098741,2.6182609395449647,3.5478713939526267,1.5967903393110794,3.7207026973491075,145.10847699990916,4.945009929823872,0.0,1.2132660033057951,0.9272816792637083,0.0009206872197504781,4.699190188077798,1.0608129234760586,1.2132660033057951,1.527044762760981,0.9146603509391029,0.5147538323836742,132.4328079398944,4.838653101626378,0.0,0.4207396265065231,0.38500952037537484,0.00011289539453505871,3.331461639494808,0.3217343971381018,0.4207396265065231,0.5703105856395484,2.502176473842407,12.154878123349965,125.36645794744075,4.815762091429582,0.0,1.4756131035326778,1.0853760696838108,0.00013130236255459726,4.450961910605495,1.1869591162006894,1.4756131035326778,1.8317956337865906,0.6576648542264543,-0.5010072285770657,119.38693958438944,4.731987452072007,0.0,1.4801945291974794,1.1155464782743247,0.006354355326990559,5.819180462775012,1.274046294948803,1.4801945291974794,1.853488545812031,1.005750249504051,1.0322943759316123,118.3228000959055,4.724591088817508,0.0,G4
1.4724259905877408,1.1443464343186844,0.0016116309918332572,7.267739650688494,1.2108350793888922,1.4724259905877408,1.8648236001016765,1.1953778265128272,1.9815125000762412,133.893857687834,4.84274097893873,0.0,1.9959133779021385,1.4779470165138124,0.007458185210827369,6.547140993165131,1.7005433728653019,1.9959133779021385,2.483545368160365,0.7173149911046447,-0.35758279541956695,105.29083263329379,4.594330390787147,0.0,0.4221515809774022,0.34242797755988796,1.0293729516438338e-05,1.6491027075779172,0.3392617069328146,0.4221515809774022,0.5435704895756164,1.214083437765925,1.25654854912779,138.27080944352295,4.882724864647695,0.0,1.819285989006593,1.3015090551309798,0.002580484028926383,7.604091938075588,1.5793241644701648,1.819285989006593,2.236901278640529,0.9474506535083898,0.9821645306151541,150.00867566981194,4.857261979734385,0.0,1.1119052727162526,0.9646222727566278,9.02572948502305e-05,5.069516344340955,0.8834613778918449,1.1119052727162526,1.4720154430549859,1.2755341679359273,1.7623601869665038,89.92383427383746,4.423747529418901,0.0,G3
1.5833475740162313,1.2820696486248486,0.004707139196718377,6.875121294299602,1.2167203507252324,1.5833475740162313,2.0373247468354494,1.4049805200665377,2.095640937968099,123.31246413893093,4.783352130136208,0.0,1.7459453989961589,1.3563418056093581,0.0007721793332864015,5.835552658925431,1.4243205744864418,1.7459453989961589,2.2108795602473488,0.8672532684670846,-0.012604400177875341,119.36431069383781,4.705766284605764,0.0,0.47772774040246946,0.39442976025338305,0.0002611799483195438,2.3370788504743767,0.380274658694527,0.47772774040246946,0.6195148341432919,1.1803263238303192,1.5064918454165852,121.34810227122745,4.785797648193141,0.0,1.5998551776723846,1.1638797055085808,0.0007256003986497173,5.351206251148445,1.3590855749430548,1.5998551776723846,1.9784217342164128,0.9508027655533943,0.5245648848177544,114.50403909765525,4.673977031683519,0.0,0.7008590183320752,0.5425278901658487,0.0005030076951440515,3.4758306571535598,0.5811404423988422,0.7008590183320752,0.8863068741610929,1.477341859997979,3.5841883935847623,96.9226033217306,4.520692442877691,0.0,G3
1.5328593529906565,1.1902509921807676,0.0034562932811079555,7.348678607558577,1.3043645657782355,1.5328593529906565,1.940709978445578,1.213538383392454,2.08502736558364,153.33453943806794,4.981145958693489,0.0,2.2258247798212607,1.5046956250942343,0.005553535978380195,7.16370749266392,2.019860746467483,2.2258247798212607,2.686708930019047,0.615912775553114,-0.2846358209060731,113.99238084126826,4.606134606795562,0.0,0.5032741605575232,0.39983958915497714,0.00015673471266139166,2.132092936968207,0.4065334456823139,0.5032741605575232,0.6427725707748431,1.073007641445102,0.9987064387853741,113.79873140022755,4.693324902922617,0.0,1.885147154270557,1.4710828075360722,0.00016103600669736817,7.917190219236413,1.5462019080927323,1.885147154270557,2.3912056414876974,1.045018094352911,1.0211188151473038,95.29933585033532,4.520690864686835,0.0,0.759233994049913,0.6111229639142429,0.002873430496021549,2.9460953545651765,0.6220740237126672,0.759233994049913,0.9746319996513106,1.0462409020785546,0.7366568562280693,93.00834138828833,4.423692915233784,0.0,G3
1.0701841035301716,0.7794603678684282,0.0011903759118334846,4.199010326184389,0.9076636090061672,1.0701841035301716,1.323953352851324,0.8593298036785718,0.3988517989134017,163.83646215515392,5.029325985440104,0.0,1.3517277011220115,1.2533329601687795,0.0007223297753995526,6.146416625794761,0.9556644745674936,1.3517277011220115,1.843369547059415,1.3542496148663656,1.5241017548513849,117.43951065295354,4.739362012196821,0.0,0.34372599069493137,0.2798686683222931,0.00020907505846170724,1.5763355474008678,0.2564503020824603,0.34372599069493137,0.4432539093879554,1.4021899806846372,2.0206519731961308,124.83209262537542,4.771591869821776,0.0,1.7155035903417726,1.5424910156784202,0.006031816405726448,10.52076326584578,1.333518477288571,1.7155035903417726,2.306996120916582,1.9763826003675031,5.908327430446452,127.82268660642133,4.863196247281129,0.0,0.4625824849495065,0.41223319884487075,0.0006669125753096961,1.9469531491845544,0.3384853604905803,0.4625824849495065,0.6196117862112818,1.5843720428372847,2.2924369990073883,106.62765151632283,4.622426824057307,0.0,G3
1.1662482452516314,0.9991722339740198,0.00147151707092269,5.018376869307117,0.9069960979173595,1.1662482452516314,1.5357343919757553,1.3017457871818074,1.3858531981027822,165.7607182458278,5.087152465707,0.0,1.15745086544337,0.955880988844436,0.0002238525784783417,4.93500250644811,0.923082270699735,1.15745086544337,1.501133228847401,1.2131435820386585,1.1854171425205102,132.6490030915989,4.873947478989427,0.0,0.3442015737911808,0.28606925345489836,0.00015824622386805334,1.5291644745026023,0.26031040306505543,0.3442015737911808,0.44756043298371295,1.1973188981165286,1.1828936429973682,126.6360801325026,4.823905751205143,0.0,1.9085514509224881,1.278202082806066,0.0004930394503903923,6.815191470551011,1.724998835076688,1.9085514509224881,2.297034872462345,0.7440000886260745,0.26490914485441763,163.96278470749016,4.992269699160102,0.0,0.5214779781229896,0.40565664270211016,0.00039155573162247574,2.1102099291334087,0.4353448753252177,0.5214779781229896,0.6606788882926324,1.1363957691162674,1.3905803543588293,101.54925368163279,4.535976119647614,0.0,G3
1.2300129571965477,0.9897595306153429,0.0016714417978307694,4.482681620130742,0.9484764371510015,1.2300129571965477,1.5787830133730538,1.1079633509386497,0.749173826818796,157.08507267442337,5.020671384284498,0.0,1.218609022055447,0.9790431826124898,0.0010438482480464115,6.30465809113003,1.0141833170471026,1.218609022055447,1.5631805724403454,1.368273133875987,2.9778868575644086,139.32476052604468,4.900826103019784,0.0,0.28947768931580575,0.2272465413748474,0.00018189133607528912,1.03928663757357,0.23209054683179164,0.28947768931580575,0.3680194603257393,0.8164958023089394,-0.08894086479794261,140.8824155201919,4.907750230062568,0.0,1.7988354738502152,1.3731298443352025,0.003899676883425695,6.589801143851797,1.5274982053912463,1.7988354738502152,2.2630277575376634,0.9409808689891751,0.46577386541659793,144.81714865051003,4.963514444690369,0.0,0.6487231152709012,0.4383457934521662,0.0005800747302058313,2.3014215156345337,0.592045218442747,0.6487231152709012,0.7829359583797335,0.6914832775118732,0.20516695236512517,96.47142725847823,4.474462945566391,0.0,G3
0.9963318998805251,0.7345721338075775,0.0054719479236003035,4.724798577145098,0.8507293406785743,0.9963318998805251,1.2378503441394497,1.2995780637038874,2.8209855065014287,126.74497525215806,4.806030064076933,0.0,0.8918942315883394,0.6838172018843938,0.0005836313053200343,3.7810670591836124,0.7574355759879643,0.8918942315883394,1.1238688917901216,1.109769085195524,1.2723858962258818,111.55829262423872,4.689381217147798,0.0,0.2076142587891064,0.19263954659156896,7.59421508484976e-05,0.9689633059187518,0.1496741640003386,0.2076142587891064,0.28322018883468625,1.4827304167288744,2.1739541349465616,131.74682362045175,4.878791338411464,0.0,1.2578976047595796,1.002250331723977,0.0011179999040961735,5.955040871906702,1.0076411008997397,1.2578976047595796,1.6083569602239143,1.061398660521789,1.3692174961520935,136.9266934853385,4.8808432157745445,0.0,0.30392139608579205,0.2797411679516648,0.001007980620184658,1.599811162857789,0.22162649023191652,0.30392139608579205,0.41306577689963425,1.8025269481944428,3.892581890671499,93.97285466313015,4.528294320166481,0.0,G3
0.8791418295270657,0.6826200948881991,0.0005014169852623762,3.835163040194887,0.7233159013732483,0.8791418295270657,1.1130411269891918,1.0531080112577775,0.8505208150905506,119.26368760450916,4.704262484826446,0.0,1.0865056233394146,0.8511958101045412,0.0005113468025221947,3.942051219084591,0.8669977864779519,1.0865056233394146,1.3802277988389076,0.9517715050128995,0.18801188932092083,95.18561151378002,4.504846741209568,0.0,0.22174612888682008,0.18063662702118638,6.655414044248395e-05,0.7990201325903243,0.17181003127740124,0.22174612888682008,0.2860086304604835,1.1305059017018901,0.8438547540701409,138.60707398192216,4.890851922611343,0.0,1.4856282325285202,1.2927104147912312,0.0008120878030381112,7.410447772501511,1.0669891599543977,1.4856282325285202,1.969312433768581,1.3351630304527533,1.879509112691431,142.12295816917577,4.952360115962095,0.0,0.2913656286045322,0.2437218704100676,0.00017205436837086467,1.3882731711318579,0.22099973968985348,0.2913656286045322,0.37986086880369235,1.4921624858032605,2.5461999372129522,99.96783965586214,4.534952865008634,0.0,G3
0.8948259378954311,0.7074193063443934,0.0006089053115483339,3.4005220466647135,0.7300572894228337,0.8948259378954311,1.1406820477763382,1.1703649184883425,0.9621416658003077,118.34445373790186,4.730863095187708,0.0,0.7421656825499203,0.568108059150348,5.175759690394244e-05,3.524268851440736,0.6270397910618066,0.7421656825499203,0.9346425344624353,1.2701997124770652,2.3682885854074582,136.87107896121245,4.879716969811705,0.0,0.2179706108027985,0.21256064116966547,2.895658929486895e-05,1.1929419746419656,0.15665396844951476,0.2179706108027985,0.3044556016042476,1.8026665344514687,3.8674900483996035,129.65048270854862,4.811824405211295,0.0,1.8795391917579032,1.3978782025287528,0.005579366302195417,6.796722875247126,1.5908219392109682,1.8795391917579032,2.342377220359473,1.0423932057943006,0.832283645549666,139.4594199006315,4.869955499260405,0.0,0.31804800843136277,0.27318241050741376,0.0003783917840887458,1.3598298424413262,0.24308552229432423,0.31804800843136277,0.41926502963852985,1.3284545476393623,1.6840237285365829,99.24444722463471,4.602173223123516,0.0,G3
1.232464253566159,1.0716004862508328,0.0009863765972201732,5.819825705001256,1.0142795568460068,1.232464253566159,1.6331857636078666,1.4176335605295949,2.141862913403643,134.37779585100023,4.891810457973161,0.0,0.8614741202047712,0.6279658594794878,0.0025703399350251537,3.350099876325517,0.7271104389193975,0.8614741202047712,1.066057587775818,0.9666447604785942,0.7239787192790552,131.47595299308514,4.830995405975945,0.0,0.29391542277416977,0.23758255263434122,3.4467289123527034e-05,1.245973339378153,0.2417271562479175,0.29391542277416977,0.37793087338925946,1.1272962494680387,1.0268437445890397,131.52737482525436,4.846692656283932,0.0,1.2665517909247253,1.0074394553281025,0.0006759134414107762,5.127925213472288,1.0087455483149523,1.2665517909247253,1.618359569207787,0.9255766516353637,0.18102265252528005,132.21321631976338,4.841676222280946,0.0,0.4374933057003251,0.35537593945269574,0.0002265261825025972,1.9431173674133027,0.3361291651940367,0.4374933057003251,0.5636421301450808,1.3556523101421682,2.041960988305453,97.22981144205899,4.493828171263988,0.0,G3
1.006165741855058,0.833749058736609,0.0004949838342989503,4.171386029272136,0.8042714948687021,1.006165741855058,1.306716110341845,1.0706530105514689,0.6708723408108987,140.6470914447451,4.935622187060848,0.0,0.7656828455949586,0.5962257172465354,0.00047247121740219555,3.0294102448668867,0.6337528725347661,0.7656828455949586,0.9704407895098695,1.0399060601500336,0.7893205464673447,146.7263901882167,4.908964077055531,0.0,0.3187715121907089,0.2992191624092182,0.00013673816346613035,1.688868661141255,0.24093066762815107,0.3187715121907089,0.4372040532031071,1.7570515035592098,3.8677144751235497,139.6043334141229,4.94510676690208,0.0,1.2793220216952395,1.099916441153277,0.0025725436184082344,5.469235912664937,0.9722500952642084,1.2793220216952395,1.6871517456096488,1.1746001433499325,0.9926643323799547,133.36340128839828,4.878790281954681,0.0,3.1230555988131874,8.092718480724853,0.0007137578126210561,65.33714064120883,0.6835779876548853,3.1230555988131874,8.674420365738797,4.4516663665527645,21.8179123941611,142.357542063888,5.014927476303189,0.0,G3
0.9093286557222285,0.7636259561571549,0.0018645241232136053,3.657769103869286,0.7199683914227704,0.9093286557222285,1.1874355582660154,0.9828477767964285,0.4431236294293921,155.80169371978747,4.984146164272135,0.0,0.8445578237639557,0.6764917237998622,0.0009947539598650686,3.6531519229330054,0.7304291332983068,0.8445578237639557,1.0820900933150706,1.1475823630285378,1.2942072322441094,140.65011755629916,4.91154024596713,0.0,0.2867208333067327,0.244315121616338,0.0015553540328349744,1.3723067778301123,0.2239811670563926,0.2867208333067327,0.3766944582848455,1.6189619683298744,2.851139157935017,130.5659724244008,4.853271198225575,0.0,1.401976440683597,1.1110270939130027,0.00015641974757971827,8.362757300706324,1.2638641895044938,1.401976440683597,1.7888317818175694,1.8048698174644173,6.662457296274422,119.64326910078776,4.7702264559781975,0.0,0.47476499833991,0.38849270507716915,0.00043414431943878274,2.1391592697913806,0.38012367108909695,0.47476499833991,0.6134560991194652,1.2272221849989737,1.4331445437217676,100.95506946941019,4.545940183865615,0.0,G3
1.9544432946868642,1.6756230355750696,0.0036370000737332847,8.564869713667628,1.4954702298454516,1.9544432946868642,2.5744050088314108,1.358700966922905,1.5562955525532267,114.37875723086138,4.721026841839153,0.0,1.6349221502864073,1.256621039495295,0.00024967024713615227,5.429152632969606,1.3985116766503416,1.6349221502864073,2.062054042550623,0.9875381652417116,0.5449163503961407,99.45028456581461,4.515418738755393,0.0,3.4881154067376245,1.9374447659373875,0.0041026027755154265,8.283348565712869,3.436903662762123,3.4881154067376245,3.9900678329796055,0.10710882070027461,-0.7806789830662297,77.09690411592013,3.9890309192038793,0.0,1.659126945928749,1.3617728130387712,0.009904667631602096,7.3868066579565825,1.4264438257790735,1.659126945928749,2.1464220034835617,1.3523834212417474,2.4218007241790307,122.01104583353172,4.740955594137741,0.0,4.2814487639072825,3.0177144727028886,0.000942014591270815,11.831037374610514,3.8748859131422924,4.2814487639072825,5.238072561231245,0.4396578494852584,-0.8531379141752344,87.53432588910708,4.371240543746048,0.0,G4
1.8652393606475428,1.4007800413328617,0.0010456016932698636,6.680710336062604,1.552445540704159,1.8652393606475428,2.332659983089123,0.9595900357847551,0.47830741209826044,113.45437099837525,4.674067007190125,0.0,1.4518809117520846,1.1450468633333861,0.002439500171782745,5.758572679031644,1.1599171149761978,1.4518809117520846,1.8490782842107283,1.1484082370042556,1.0178581409554823,87.20694590506089,4.415061178631785,0.0,3.808486615782889,2.3101308562238083,0.0016853458575475794,10.31782472883062,3.536585664823557,3.808486615782889,4.454354596961803,0.6147619109973443,-0.007557343131957772,66.90595579832797,3.946363763400891,0.0,1.5138572517936106,1.405813170591703,0.0004950917928053522,7.628718260686747,1.0508489206612528,1.5138572517936106,2.065931859819486,1.605197000682009,3.038058721652318,110.8198127383671,4.651960658432737,0.0,6.034168710750768,4.6592244993950205,0.002450501566880217,23.018484969584318,5.030174870106869,6.034168710750768,7.623618889055667,1.0631787767691103,1.0306338635198742,99.84797080749559,4.451729704052862,0.0,G4
1.8576433706764892,1.408872495267133,0.006408710486007538,7.49194677952376,1.5146074842801656,1.8576433706764892,2.3314717670472755,1.0443911140345903,0.8005370780249219,126.02528950754294,4.813010191785179,0.0,1.4260987194037353,1.159698915264383,0.0006979107752055798,6.739456551659756,1.1738486210962518,1.4260987194037353,1.8381129267676566,1.2250527114545424,2.1431667741875575,103.96203468518053,4.541819288944593,0.0,3.3950538514615083,1.7706243587206996,0.04491470964648696,10.165479243010438,3.2797811209693912,3.3950538514615083,3.82903398705453,0.5242113013322945,0.6317316723356234,66.45636718844811,3.885982305054663,0.0,1.6263897742654034,1.2784338436597134,0.001574451679617471,8.321739593025253,1.3413561094361057,1.6263897742654034,2.0687041331349487,1.4622559311508694,3.3942947634131073,107.97919175701263,4.620396772381819,0.0,4.84666750458181,4.06141667289153,0.011023352730360952,22.31630199286439,3.689709278675249,4.84666750458181,6.323392387857215,1.3133989867087692,1.8298791573837194,64.99638291916285,4.150363112337266,0.0,G4
3.0992689580171757,3.3346947587128426,0.0008677565343007728,21.770767590585056,2.1454816989076932,3.0992689580171757,4.552544036900223,2.4209786496562185,7.070616670604492,176.28068116127096,5.195404950384287,0.0,1.3125625325611727,1.0823578787155723,0.003411505037994568,5.655381576949431,1.0801285153210147,1.3125625325611727,1.7012698138452562,1.22344411910848,1.6860760704276547,108.94344120324378,4.664328567454546,0.0,3.4979582693284317,2.0859869788042094,0.0031622705360741686,9.53359290828825,3.3665536200243658,3.4979582693284317,4.072720679067479,0.5111413844657596,-0.07683566412611675,64.50904363352325,3.898411539123051,0.0,1.573717153826354,1.2764418568052895,7.262179710038064e-05,6.385311159973063,1.247894165421473,1.573717153826354,2.026299458138371,1.2138375228854914,1.3796377023135706,130.3537936688639,4.81636807656706,0.0,20.09021946731038,25.96973584940559,0.06736170123139426,179.74210805985138,10.764645087773577,20.09021946731038,32.83358186876051,2.958606471111128,11.20519259439383,150.67700748148158,5.060598076492688,0.0,G1
7.296742874547245,6.596158844558154,0.009555592159056686,36.04770968341447,5.20372692207288,7.296742874547245,9.836247662594651,1.4626811723909199,2.151120537184452,127.36988042200547,4.814125250538446,0.0,2.8076118932819063,2.6258081509336915,0.005706240135090402,16.59532086385035,2.045962075112766,2.8076118932819063,3.844158293932213,1.8285699744432489,4.31153815692726,125.86011137931185,4.841642970946444,0.0,3.5830041413254072,2.234525513508376,0.013621206308820959,11.295720518086187,3.481035189772178,3.5830041413254072,4.222679593252949,0.38395567675210934,-0.36801857004070593,64.94253998841499,4.027209335072496,0.0,11.104556847815982,9.747913946688357,0.005243936727086441,41.7144241575214,8.265550711254424,11.104556847815982,14.776095867935421,1.052207928548182,0.32959994842217544,94.2392394053956,4.512647465696473,0.0,96.74953733858425,97.20852224893012,0.026988626178511943,548.7083512190044,61.73821354875381,96.74953733858425,137.14944321086708,1.6518600914380202,2.928359978788956,153.70209749619832,5.0607944942130025,0.0,G1
28.915675506865714,37.829584915971225,0.020969286094355805,267.6360352626622,17.14454306589483,28.915675506865714,47.6150583842237,3.3416806430337656,14.376094123585112,118.44975112329251,4.808551452685983,0.0,48.18897763320025,62.66451025962246,0.013488507843374811,367.14220472925837,23.230676438859653,48.18897763320025,79.0507331491075,2.173959825065102,4.778706887727304,108.80203846274925,4.666566422885634,0.0,42.638747656120465,61.662904546946486,0.002594084711439404,373.0281762523237,17.69730501059746,42.638747656120465,74.96917098946841,2.317877495341937,5.543463710268565,100.13242149698097,4.606421266634797,0.0,16.899367519131548,16.601015652472324,0.0009299322470053273,81.7527609262612,12.04328535664167,16.899367519131548,23.689287520740454,1.5308099945920495,1.873927246557706,120.06826991184604,4.761714017099106,0.0,107.98768312171681,165.79219680356164,0.018336832473151432,1189.6982555655052,49.335491693775616,107.98768312171681,197.85952650036143,3.2947388183098782,13.01880768280002,139.65192304528674,4.98420711352424,0.0,G1
1.4727401722615483,1.1391346749308908,0.0020905547629371593,5.786065312261553,1.2917759086198894,1.4727401722615483,1.8618784661257781,0.9606342986920909,0.7258833743343671,131.4319481021881,4.828174760421731,0.0,0.8853557658767504,0.7270014337255098,0.0005980692102099004,3.8629275116542354,0.6880396125957582,0.8853557658767504,1.1455941326709709,1.3583308581041682,1.6509419876395368,128.24489621197785,4.823664708954488,0.0,3.228083321844884,1.855440118077827,0.015503205780552191,8.780328959039066,3.0352981178043885,3.228083321844884,3.7233291507125394,0.5458475205721848,-0.0001966956075341031,55.45519154045292,3.7851404955260946,0.0,1.3772086746573946,1.0507136596653412,0.00021769339312848607,5.996945162833513,1.2306362494537106,1.3772086746573946,1.7322537135647629,0.9340358800267814,1.0061677946765784,97.67995508771257,4.489217390938442,0.0,2.1471499367918727,1.9767034091298334,0.005981507693130307,9.113884684740322,1.4797639292947342,2.1471499367918727,2.9184943410482824,1.3594369417180325,1.4462746395563917,72.69445284437329,4.285035990260283,0.0,G2
1.358584136465451,1.0979062692172301,0.0001366407322676011,5.446949549430993,1.044045096357015,1.358584136465451,1.7467538555394895,1.0993422423179038,0.6703552352079716,144.67323040872142,4.9117631918720495,0.0,0.9888890225147977,0.7470365299990929,0.0005767942942916078,3.521535308258544,0.817414579422892,0.9888890225147977,1.2393405811169735,0.9276346558005483,0.4509783847856146,117.96912029635523,4.704315135754616,0.0,3.289400859959182,1.4399558461941349,0.016814266534196605,7.026992660588309,3.272217294627578,3.289400859959182,3.5907702316479218,-0.11448414007114252,-0.45457922368180315,64.57221397242924,3.832150155809555,0.0,1.4318253086760855,1.0344715547355425,0.004429514960915778,4.682645743548846,1.2061769028729832,1.4318253086760855,1.7664243861887605,0.8407370938470583,0.03759591598831902,96.07182976118409,4.501946228389279,0.0,2.5577129199834516,2.0215384838534813,0.0003891859547266313,9.684962915312934,2.1183900775959903,2.5577129199834516,3.2601400618303056,0.8875955611885901,0.2570874445963782,88.21897783626419,4.385512618319678,0.0,G2
1.4755356686732395,1.250904923788635,0.0023169641392259462,8.200132085105123,1.1988587093370693,1.4755356686732395,1.9344168728290276,1.3525625437980753,2.676673386046298,142.40565393892484,4.938141006566873,0.0,0.9492759193068966,0.6895489926504191,0.00012706852089200416,4.248958103712551,0.8295136120589167,0.9492759193068966,1.1732870851761563,1.2583194208441724,2.1899432837323243,129.09678242954533,4.810782277927143,0.0,3.1833635899810844,1.3166006708623568,0.046042764606691586,7.7102204359157325,3.2514720624379816,3.1833635899810844,3.4448862205495936,0.05432068848588498,0.2160914467489854,75.31263667197123,3.9244699013116358,0.0,1.148854079461652,0.9610696632210214,0.0013174955899255998,4.308763330581247,0.9041734929667942,1.148854079461652,1.4978386406617528,1.1148446265915624,0.697490064248417,97.43726589310998,4.5323060310209415,0.0,2.114501561594685,1.517235271223715,0.004813413164704327,7.094317329568911,1.8913387287215475,2.114501561594685,2.6025218005295674,0.9047133603674166,0.5443229576844804,99.43565705705606,4.468461272295606,0.0,G2
2.3664912930911517,1.8245343175609487,0.00025014068642570733,9.71729639238022,1.9666550015557034,2.3664912930911517,2.988177791938396,0.9843735257624369,0.6249726075825079,121.41153064705412,4.697932607979503,0.0,1.6541120335557784,1.0939023738862321,0.0017611908709884959,5.169769744087755,1.5176798971424224,1.6541120335557784,1.9831059031599818,0.617090566586137,-0.16382744156590512,113.6235502728943,4.680069092355351,0.0,3.5745057349934988,2.458807654668494,0.001322165450323827,10.307235536962416,3.1706454767740375,3.5745057349934988,4.338528129695345,0.5881204037963761,-0.5140642715168853,67.68002500691654,4.036531996408828,0.0,1.6557236158251762,1.1975517307751613,0.008675679457935903,6.7215329492145015,1.4592939591477427,1.6557236158251762,2.0434164626633944,1.0123562530809236,1.076476591200688,113.19799631997518,4.656254421202901,0.0,0.6997469737243375,0.5179225533410737,0.0017767107113138357,2.3944526747826687,0.5871193620753451,0.6997469737243375,0.8705685489929589,0.7047885724303319,-0.26429491250916026,99.55011975751724,4.525989395483305,0.0,G2
2.0462957126670904,1.53394161239636,0.00379549846905175,7.8829276931683285,1.732690214770006,2.0462957126670904,2.557401613732356,1.0956632382530096,1.077154422715516,119.09351921001821,4.696749338970464,0.0,1.4865507809369973,1.1294372023187456,0.00030927413991892194,5.655174668831715,1.2567747335181112,1.4865507809369973,1.8669391040647232,1.197606692722018,1.427716006581992,105.53591718357066,4.625554843560108,0.0,3.3985793089194383,1.9697014538545647,0.0006922606291240863,8.986600124965234,3.245387912102731,3.3985793089194383,3.9281121593371173,0.4098869204340636,-0.46072064462621043,84.60750623372424,4.219176701363736,0.0,1.5648983894595299,1.230082819475195,3.714658277793881e-05,6.542151795511837,1.2347966987534154,1.5648983894595299,1.9904800205229582,1.04835574867889,0.8194091429458377,124.65752478377561,4.748379847247204,0.0,0.6387590907663897,0.5047379592604078,0.0001868114649339267,2.62930599294994,0.5321771315686668,0.6387590907663897,0.814109073500023,1.1487327769789863,1.2485093426191165,91.02206146495539,4.408663364270637,0.0,G2
2.1808875429959,1.5737287035660275,8.319514798497615e-05,8.272467968975336,1.8661222615185395,2.1808875429959,2.6894037457440825,0.7120764289388514,-0.05560626451752437,136.5765184289825,4.860705413285142,0.0,1.4795565580452377,1.1403377302627926,0.00048307069142472514,5.499966142069412,1.2180069766102541,1.4795565580452377,1.8680090330390717,1.0124305133048015,0.7828123598598502,112.99297126036603,4.613674237999723,0.0,3.550887637080988,2.12434424394336,0.018466511069210885,9.775472983527168,3.3543711735794295,3.550887637080988,4.137830527939718,0.4667293940546135,-0.37703606531366196,91.35782044798901,4.261987347382725,0.0,2.075413807315455,1.5512851975180573,0.002304922224519255,7.000298888650147,1.784940766500731,2.075413807315455,2.5911056010194318,0.696123494463351,-0.2563373689054296,106.65880794485332,4.54001032411075,0.0,0.5383271532803662,0.4272813714908061,0.00020836298581817028,2.1338380375202504,0.43537675906377526,0.5383271532803662,0.687288508838906,1.1148836233980892,1.0929633958403056,132.53781079001106,4.845686210310325,0.0,G2
1.4887895985563122,1.2601965758774878,7.732590821141997e-05,7.075061468075038,1.1426206694192271,1.4887895985563122,1.9505357927048685,1.1536825320467194,1.1397944976811685,123.07026990603693,4.736705893146582,0.0,1.7871305198519012,1.3423315166552083,0.0023416373201533003,8.164627580966796,1.4763055744148863,1.7871305198519012,2.235103889216785,1.336374593373212,2.562863136091633,115.9768955274354,4.694637059569116,0.0,5.4710001767699215,4.458867574967809,0.003929538523550914,23.271201417875968,4.537327547402134,5.4710001767699215,7.057856826637661,1.0529704289669763,0.8214536218253436,133.75983461453137,4.881160783350125,0.0,1.3103426463527306,1.0594750117512015,0.0009894531376889787,5.346361732676685,1.1028482241691901,1.3103426463527306,1.6850771944857261,1.182526182567341,1.3130170432970152,117.04275555722012,4.7105195412492655,0.0,0.7485807992869816,0.5631271454957198,0.00011395089873780535,3.6042937640992894,0.6115452052617475,0.7485807992869816,0.9367419041845485,0.9772804733806686,0.6344616063141517,175.1691239655465,5.086595429212721,0.0,G2
1.320513822746671,0.9365209373418828,6.947247272443002e-05,4.676421157346625,1.2215069438766015,1.320513822746671,1.6188972240833406,0.671168140889173,0.123148173270621,128.86127889328176,4.74894729547748,0.0,1.459849280504679,1.2543259712196984,0.005469706899435275,6.63709200371306,1.128602155669181,1.459849280504679,1.9247060980488082,1.2884908436852194,1.5952224240769466,107.74652312149603,4.655737588463805,0.0,4.839949987103436,4.049203112779996,0.016240349207698804,20.5249468580722,3.7647392128221324,4.839949987103436,6.31040107490877,1.2881858921709313,1.474763664349748,129.07031695402986,4.829099419537524,0.0,1.7060974479442808,1.2830736201703525,0.0011420328511925343,5.695723539637502,1.3577545613138464,1.7060974479442808,2.134723967322015,0.9698710927969024,0.2682575695502276,134.95474689755417,4.815242750422735,0.0,0.7066471437559851,0.5360548735404373,0.002281240335458675,2.7133322304800034,0.5753485872643563,0.7066471437559851,0.8869639300585714,1.0691843663380602,0.6652139203339096,91.2757646609436,4.467470225124318,0.0,G2
1.1297068835235233,0.9386500628531417,0.0012892494215293732,4.862053592354002,0.8874736427713943,1.1297068835235233,1.468775538731034,1.1568220591144578,0.9581672277267299,107.43089918019909,4.650564609096893,0.0,1.6788891068523661,1.5531188579302002,0.0024820215895833345,11.66478265175809,1.3822890800827272,1.6788891068523661,2.287104461970626,2.768028657702878,11.73686375225552,122.35586442892574,4.788253084460072,0.0,5.439284416107165,5.803075215517117,0.003079452855056869,36.05510783898258,4.009351840025326,5.439284416107165,7.953709632382572,2.245803538311169,6.238613307828524,119.4398803255531,4.82453994880263,0.0,1.4751347097314316,1.1548004160901657,0.0011647671646084715,5.660257338322139,1.2209232178750966,1.4751347097314316,1.8733890180249413,0.9052225717657112,0.18148377043788733,130.81816939520783,4.746929586000039,0.0,0.6267182827339899,0.5367074862143503,0.0008843277540380411,2.78581734414339,0.486141542316102,0.6267182827339899,0.8251246764408201,1.226807678300912,1.470303629986879,110.87303379711398,4.631617691951647,0.0,G2
1.2752273961155096,1.026758147100604,0.00035184683899455726,4.997481762704082,1.0605637321851922,1.2752273961155096,1.637204081488013,1.1004564540713448,0.8681328768169823,130.81220966892428,4.854580675130628,0.0,1.2683349804232324,1.0482090651055653,0.0007054260120331855,5.690929503875246,0.9878073447193603,1.2683349804232324,1.6454227015374148,1.0159731581418767,0.5971827910697431,134.15813706921767,4.843003989018144,0.0,5.263788366115976,4.341316342736363,0.001538493544468611,20.78422819529316,4.158747931719878,5.263788366115976,6.82308548612486,1.2662500787292943,1.2472396018956537,125.52003766149285,4.767331606404262,0.0,1.6856652724425558,1.222265037563966,0.00460822507770128,5.934045960228761,1.4274365041835058,1.6856652724425558,2.0821621533324626,0.9424854457736042,0.40810130667846023,101.70778033099133,4.547013732634867,0.0,0.5329039285848002,0.4488568928883384,0.0005521838378796246,2.503203261728118,0.43032365457808675,0.5329039285848002,0.6967489557900227,1.4426390106266287,2.1699629362908084,111.29230843735475,4.635209559238466,0.0,G2
1.4898057507090852,1.0981808854619255,0.0008614131373247264,5.994400279836021,1.2806022310103229,1.4898057507090852,1.8508166932572765,1.117837394317113,1.3652448151737389,130.6945997541247,4.808428773966557,0.0,1.2554933215566426,1.0922937533552097,0.0012590484802726138,5.471773083082149,0.907152944193361,1.2554933215566426,1.664142158618711,1.1863879294729378,0.9789829213999113,144.48004141341025,4.936424857464196,0.0,5.290880097593551,4.4712309983486245,0.003972431182363541,20.682578771174274,4.095000876539126,5.290880097593551,6.927143628343877,1.1793133454157898,1.0295456110507137,127.95340464714441,4.842185748459015,0.0,1.222796925106523,0.9369592178042179,0.0024029256473686936,4.802348762280497,1.0025825231198184,1.222796925106523,1.540495016505493,1.0383193949983636,0.8266306696704984,108.15272271582656,4.587273047175976,0.0,0.5005514062349231,0.40834770462478515,0.00027216125479941067,1.9385550379422891,0.39663300666815715,0.5005514062349231,0.6459872739892714,1.1959104915233845,1.0398676002624327,118.2491522080988,4.755714179105652,0.0,G2
1.3810590254337145,1.1300896500798667,0.0026247375275039106,5.516072268476263,1.1036768551398755,1.3810590254337145,1.7844961891104045,1.2221270537743758,1.3295299322859737,135.9547851819288,4.8454415220024165,0.0,1.337247852868304,0.9765839699463565,0.0003613057813264195,4.809082826193869,1.1844654142555469,1.337247852868304,1.6558828673420942,0.9986186856827758,0.85105391727275,147.07251026656837,4.926302437690724,0.0,4.199811339895554,3.619762832367011,0.001882569096763237,24.891625805130186,3.399781133679403,4.199811339895554,5.544465551638041,1.8783963426103851,5.437517573534565,112.94952677546473,4.698051324001549,0.0,1.5242172819364237,1.1566663231572667,0.00018459004334252585,5.461253006052247,1.258286583642235,1.5242172819364237,1.9134041145768999,0.9361847817690547,0.3091224454805843,117.43522559472639,4.634647703971009,0.0,0.5587341436924618,0.6065364210613168,0.00027698990478805703,5.268248864336789,0.39942923137076247,0.5587341436924618,0.8246637335312008,3.2818992193562333,15.755375252876462,141.21480471007368,4.9827215714706545,0.0,G2
0.7336823753669367,0.5651725082770047,0.004836756447660819,3.241872562452122,0.607040934429649,0.7336823753669367,0.9261262289969935,1.1175874669682564,1.2570742698586157,111.96394646079735,4.683072459112793,0.0,1.0692874465313047,0.8980845000588494,0.0014684936907301358,4.401025182006996,0.8703733340205865,1.0692874465313047,1.396399445916315,1.2375034045680655,1.2749816285368887,107.75860950446382,4.598725469789362,0.0,3.2536778336165146,1.0236779834305323,0.06532357590231663,6.489163002286277,3.2164979242322866,3.2536778336165146,3.410914255552001,-0.18034106273064116,0.6357330827655137,87.82911477198745,3.874327048088775,0.0,1.3714315687438896,1.080826312492279,0.0012076786292377541,5.445559213162906,1.0640929463186175,1.3714315687438896,1.746141479240151,0.8270030619539855,0.03890185665987467,121.61011982079748,4.7160194305418655,0.0,1.1525268660989472,1.0915282925448915,0.000573310222559846,6.605186617446807,0.870628608533765,1.1525268660989472,1.587372732065732,1.7572800467956293,4.155018752418726,99.52202239421206,4.530568284257189,0.0,G2
0.7959393325116487,0.6833736672404049,0.0007584537829331828,3.7333810943119277,0.6037560001858043,0.7959393325116487,1.0490562378236394,1.357050128755955,1.9037693780665945,145.6569251232233,4.965737460363074,0.0,1.054843779264307,0.7732716029437131,0.0014118588434953224,3.1544218783860045,0.8324630739263993,1.054843779264307,1.30791604110193,0.6694066161601562,-0.6074638038487432,131.5188342118207,4.726813934039196,0.0,3.308934560967936,1.6096565286768096,0.037919172385491966,10.002093765520652,3.165993605288509,3.308934560967936,3.679679615004537,0.7663211984515708,1.71007119756299,95.83083655456237,4.345554008729256,0.0,1.3692506120142305,1.0579280530321757,2.119187014367266e-05,4.328193845517011,1.2054618009481322,1.3692506120142305,1.730334939800325,0.7007571558130828,-0.38375006606910445,123.9602428878975,4.761566915545672,0.0,1.3519599120249892,1.043482320402598,0.003176792284052231,5.57545450105672,1.1191627601072454,1.3519599120249892,1.7078205282509655,0.8412908951348361,0.42240719629844126,77.34838439969329,4.276477710377843,0.0,G2
0.7477586811018444,0.6030554675156751,0.0006248223467080162,3.317998893661994,0.6264710760095551,0.7477586811018444,0.9606346558727304,1.142117013105707,1.4924917518871919,136.03418424650891,4.894114130792917,0.0,1.1210777482791232,0.9256894658496655,0.0028641733715467754,4.693474339528854,0.8601507413867364,1.1210777482791232,1.4538625467600532,1.202501382011774,1.1438628867943965,119.6750519316786,4.6990879166076445,0.0,3.247637428532577,1.178509617421481,0.018041450149069188,6.20088813614533,3.2500265957499557,3.247637428532577,3.4548565506487554,-0.25732500257700003,-0.18026900790722022,80.03915899177287,3.851225947838388,0.0,0.94841098155796,0.7440477297818977,0.01210637554407943,4.218111078068342,0.745657157020573,0.94841098155796,1.2054419994895353,1.139925637516325,1.3727356029691826,121.53768562255537,4.755307753469815,0.0,0.9912726921080129,0.8002787472063102,0.00019097690844076254,4.525148519976859,0.7852454076681064,0.9912726921080129,1.2739967124561855,1.3159335818129596,1.9628868346925525,119.18398634323381,4.639462100169843,0.0,G2
0.8134243593108119,0.6848979426441659,0.0008306657250410666,4.450531900634484,0.6516728378593656,0.8134243593108119,1.0633646506059977,1.5088709925484596,2.9855080824440847,146.22186725976619,4.9731524228705215,0.0,0.744391444190064,0.6487295979868698,0.00034715836027948005,3.058987416247132,0.5649144701218181,0.744391444190064,0.9874050402380853,1.0966264893702558,0.6657517409576217,106.67081384842515,4.648702206826165,0.0,3.3037782816853385,1.0776994178160864,0.23004863377249146,6.756133664825194,3.2486701163537086,3.3037782816853385,3.4751096341981587,0.19488830852972205,0.668427577320247,67.44065884434717,3.6236717116277606,0.0,1.2822871766480366,0.8581032327977327,0.00633605005908773,3.951696892167058,1.138215508814268,1.2822871766480366,1.5429198169489926,0.7433664172945496,0.05103906650855583,96.87763406885425,4.471108596360663,0.0,0.48903759968809224,0.38961106962308484,0.00026758668668456186,2.05951215232166,0.38657381231785637,0.48903759968809224,0.6252635920006337,1.2414096353943875,1.4997108195618463,108.31258447257514,4.587750991401098,0.0,G2
0.8650604455782843,0.5974983603087731,0.0011811641519157354,3.0189980417093736,0.7857616034591772,0.8650604455782843,1.0513485935101508,0.7598345960645612,0.3087354350204472,137.0373330998382,4.825810877545593,0.0,0.8352437079812856,0.6726899164507226,0.00015052131390666523,4.1511131689746525,0.6583823055837761,0.8352437079812856,1.0724475630149974,1.373160829316623,2.7377363911049057,119.91231307010617,4.755197949792785,0.0,3.3168679430221966,1.2649687996158623,0.025719853672815294,7.917750872047029,3.2428231889026704,3.3168679430221966,3.54989563444475,0.4903577362524529,1.1886036562490805,57.01090631855517,3.619538178236038,0.0,1.1408353162917098,0.9539105768993967,0.00014767077317545392,3.922315957055658,0.877387179870704,1.1408353162917098,1.487094686837037,0.8658046652837935,-0.09157131800034257,107.63649445230607,4.645581015484517,0.0,0.5719331176580804,0.4754391798889806,6.0879160877742346e-05,2.0203934681818865,0.43805351222312183,0.5719331176580804,0.743740482189586,0.9367394787179348,0.1298826182266719,110.5626164310456,4.600046948193187,0.0,G2
0.856120058840708,0.6916173856221883,0.00030041909561968547,4.161803584264451,0.6962565224563715,0.856120058840708,1.1005799213343337,1.4379719847757815,2.6848201821313395,132.89190200725358,4.848515260950052,0.0,1.243150579260934,0.9363618301943573,0.0021656285026716692,4.088633906570424,1.0536250426884477,1.243150579260934,1.5563408494805124,0.6556431737592712,-0.42838709151098175,104.6661819936345,4.49653716261435,0.0,3.291316115910121,1.4668044229112618,0.012891087397756809,8.847828938661246,3.2159674010996024,3.291316115910121,3.6033702265964456,0.5623745709213589,1.0525329122792177,65.96872490580454,3.8002351280222837,0.0,1.1845008852396677,0.9818745371060379,0.0036018210608131773,4.617733484954043,0.8635935524758576,1.1845008852396677,1.5385447519493065,1.1481083848354736,0.7337772258677617,95.82745892253868,4.491124338209422,0.0,0.6515120064307643,0.5203724200302303,0.0001925592099441993,2.5386209126557175,0.5387517733040224,0.6515120064307643,0.8338197347458015,1.0227141021315898,0.6401484639396156,102.445361203675,4.52629869665592,0.0,G2
1.126251454581563,0.9166664866616041,0.0051942676104222985,4.892702544402235,0.8727350919580168,1.126251454581563,1.4521431701852319,1.196704959480415,1.1993316177959414,137.4385420212597,4.903212235247227,0.0,1.734095583527236,1.3638114225090001,0.0027087836962123996,8.187830716999363,1.5524397930334368,1.734095583527236,2.206143487848124,1.4931935268751293,3.32185596238151,109.1304459848358,4.598889670931029,0.0,3.2642299598271456,1.4889312501600658,0.003926963844800722,8.687633531543087,3.10898842664272,3.2642299598271456,3.5877727768542345,0.36860425482238696,0.22899760651425316,59.49072486129793,3.8101346212136273,0.0,1.7432027988381635,1.401289481776912,0.0006409783814131514,10.246001572294995,1.4740068115884528,1.7432027988381635,2.2365974625792218,1.6040402560233946,4.464865590771096,143.06669662718292,4.938534256515831,0.0,1.2055364287463581,1.0141620041411248,0.0034433154441756834,5.146104457269204,0.9008549123555496,1.2055364287463581,1.5753865086632124,1.2391350678352504,1.307677913180946,90.41371756080243,4.4235225698329685,0.0,G1
1.0380432192712696,0.8714739470586506,0.001532616225968314,4.431394085995952,0.7908584949886954,1.0380432192712696,1.3553599394541087,1.1591321176181137,1.0101018772401211,153.33291975698748,5.008111359130149,0.0,2.0925434067913367,1.7895526333391416,0.006493020332838453,8.752169320219021,1.4933680552317004,2.0925434067913367,2.7534045356243873,1.2611377159213153,1.3583514856118368,81.9539985290833,4.340479296452314,0.0,3.1969723118320976,1.3697319947171334,0.017189866943322044,7.252722392606588,3.0949558787722307,3.1969723118320976,3.47804509746105,0.35471278126573463,-0.07084100859074871,47.10160159824247,3.561077427641988,0.0,1.7302065261782213,1.4675030122036732,0.0023761784765110316,7.611109530222924,1.2812397330437446,1.7302065261782213,2.2687396752506808,1.3571998283754574,1.5566263699129204,157.6667092358891,5.010094301191504,0.0,1.5069042047286731,1.0373415530159502,0.000261275582785556,5.255153014604303,1.3478273612812026,1.5069042047286731,1.8294364651013435,0.810260514884483,0.34807565455810563,95.58739541722684,4.40941726805618,0.0,G1
1.2661388971794114,1.0178343470980424,0.0011618986652540304,6.538088055258861,1.0344642743960404,1.2661388971794114,1.6245289979200725,1.334830224291395,2.5111956446791996,151.76412193841983,4.987575292708298,0.0,1.5020304278780465,1.2772103603141702,0.003061141030148727,7.439968209352605,1.1775062263596499,1.5020304278780465,1.9716393460177652,1.3373813086479074,2.0200620725257155,104.582346653503,4.574675252635881,0.0,3.2511285976895468,1.30227064662874,0.03020891423214056,6.499874594874342,3.3059134349067234,3.2511285976895468,3.502248705586975,-0.05508844492165686,-0.022137970133511597,79.98068456334441,3.918532467026041,0.0,1.6627084243361823,1.3247115862921395,0.001023820485159983,7.280532804460546,1.349171390029329,1.6627084243361823,2.1259021828896896,1.136844121998474,1.1530100531869873,147.04403535859726,4.911284331700091,0.0,1.3220588603000234,1.0557349246612935,0.004170521042693646,4.160638994188842,1.076855811810552,1.3220588603000234,1.6918675661077565,0.7440605056413225,-0.4285945458866096,99.13911155763077,4.495494607179195,0.0,G1
1.0448451394877698,0.8405206295403483,0.000467349276590423,4.272684295307797,0.8415091428423764,1.0448451394877698,1.3409609592356224,1.2862412199643851,1.6479567975392069,142.63093462402387,4.929907363667063,0.0,0.9853287436932148,0.8094086681410975,0.004057016820218074,3.968290046684613,0.7873914008036085,0.9853287436932148,1.275152981100697,1.0654941897613914,0.6793789223058178,125.8820162398922,4.777132364884769,0.0,3.330037289542593,1.0557629241278157,0.3485492850587075,6.400502264909372,3.3104781254370153,3.330037289542593,3.493391432649238,0.15356128234627897,-0.013736730794464691,55.276099611842966,3.488404149900644,0.0,1.1416448465720788,0.886447326719773,0.00023622613104831713,4.27839759318231,0.973785323869527,1.1416448465720788,1.4453863908150018,0.905414166966756,0.2971591422530864,119.82053757576213,4.741664734904492,0.0,1.1075193483337362,0.9228318779206013,0.00034445802125971563,4.943048656047171,0.9456044944639699,1.1075193483337362,1.4416025047980623,1.0656153067917398,1.0143254551002334,124.72226684181553,4.778900279870841,0.0,G1
1.020127006364592,0.7543901850230399,0.0007047561324960666,3.7896462459079574,0.8721930210977697,1.020127006364592,1.2687646197673865,1.0258076679010129,0.7667119667345963,156.3308686235198,5.02479413567759,0.0,1.1160176569020424,0.8401103997495688,0.00044439560453078675,4.392573747120972,0.961009692338197,1.1160176569020424,1.3968825628106698,1.1664895496918064,1.4655743516335606,113.20373578301749,4.66917939678659,0.0,3.282060374490575,1.1279249081130334,0.3814281619762988,6.179855620590204,3.300859823262638,3.282060374490575,3.470466092636983,0.04762212385702353,-0.28030924988270245,71.41726826529205,3.748089840601112,0.0,1.620148989354916,1.3977808007301522,0.00220665291659676,9.4044762339834,1.3363691047652102,1.620148989354916,2.1397836139660433,1.7364960067736275,5.415919713276599,111.96077840397899,4.646567530006178,0.0,0.916353560939818,0.7803631829775755,1.728232190957319e-06,4.718352578535486,0.7113828041965811,0.916353560939818,1.203607305558577,1.4055211111737547,2.319812371727349,144.34507123649698,4.954965939502802,0.0,G1
0.7732639419370206,0.6355876517379678,0.001161513866486167,3.2764168656028225,0.6216963677477392,0.7732639419370206,1.0009539384715782,1.0801045958981872,0.8368033332258547,153.37615836307998,5.036378517517636,0.0,0.8884916909099776,0.6484786807491815,0.005528694414704281,3.1912906927796882,0.7457219330939926,0.8884916909099776,1.0999736743223767,0.970325475936052,0.7004006187568192,130.23866007185643,4.809630127849868,0.0,3.3184042006037227,1.275024775581332,0.07197128541338164,7.578813233321264,3.1259907471709574,3.3184042006037227,3.5549254024424553,0.4057144439695546,-0.061286997128367826,84.06939836274674,3.961291347295123,0.0,1.3953882630773937,1.172377223100316,0.0007473949404162641,5.605057597339411,1.093338074798697,1.3953882630773937,1.8225193436500349,1.1983435040771178,1.0727036974783957,142.88095404149922,4.913042906625164,0.0,0.8031208731831742,0.6579827104555365,0.0004175154591693339,5.595065553820072,0.6747393806594888,0.8031208731831742,1.0382410048735884,2.128017587872369,9.662958160839471,138.80312756336397,4.921250579859624,0.0,G1
0.2359034080067389,0.2123169900487454,3.250185498361244e-05,1.1153968468589481,0.17637167625550493,0.2359034080067389,0.3173782005314054,1.3444891682315059,1.5460092200169635,144.41032241626655,4.934633183807206,0.0,1.0909471142162948,0.8126013619819645,0.0006949118000286365,4.113227690255635,0.9199014996294592,1.0909471142162948,1.3603259092996078,1.1023690259210535,1.1386510399326015,150.0245968038304,4.923514263116268,0.0,1.3877053885102946,1.0330240419190062,0.0032084571410239196,5.0193353247203065,1.1795449103383806,1.3877053885102946,1.7299898602255415,0.7820064735914083,-0.03777527697856442,119.03640193362148,4.705309109580349,0.0,1.532801291704439,1.1339525382974969,0.0017580925527672792,7.0052015841607345,1.318639748023391,1.532801291704439,1.906653654695087,1.2453991130806699,2.4033924293522793,118.05024420968965,4.718088976366941,0.0,0.1039353513618272,0.09422501764410417,0.0002575105645238852,0.5992668163932285,0.06954119507447622,0.1039353513618272,0.14028867100638676,1.2783805305383629,1.4007026501491913,183.62802051240877,5.2063305293934725,0.0,G3
0.31550446511429653,0.5055896944453456,7.672339923549959e-05,4.917269265653064,0.19122251541510316,0.31550446511429653,0.5959563798101303,5.810413585356053,41.19857552423411,159.50501480987023,5.131370914904436,0.0,1.1439891119928174,0.9646034293197019,0.002857300586765435,4.232600223363089,0.8317799088180993,1.1439891119928174,1.4963859342473935,0.9909418405787118,0.1623301754970381,130.35810227612453,4.823021210858813,0.0,1.1303638882725713,0.8287083494035417,0.003495307572461609,4.074313991606932,0.9371623175557666,1.1303638882725713,1.4015991039815303,0.8804021104517319,0.2288424167719696,146.67615098648196,4.91820124033169,0.0,1.6512165623054906,1.3687321535428076,0.00581986191277567,8.992776695508372,1.3672472629296428,1.6512165623054906,2.1447479674250527,1.7043648075867226,4.2817876176166445,120.6828639217989,4.718752355193143,0.0,0.12774899236431284,0.11319933308541678,0.000682405178117845,0.7356668461488883,0.09558951521642106,0.12774899236431284,0.17068653743362538,1.5985522391062648,3.4153868465911,138.5201349923606,4.924718355919613,0.0,G3
0.19260392001077886,0.19726015755558163,9.961816252155144e-05,1.3605095063160584,0.1347456876057394,0.19260392001077886,0.2756951935786538,2.084733269704551,6.1688916411406005,170.54069884706848,5.1435710160418635,0.0,1.0766173508162784,0.8332463968136867,0.0003592848729649517,4.098547148725928,0.8910752111855018,1.0766173508162784,1.361397986586455,0.9161100590673823,0.3415638996870638,133.71858692424468,4.840532526600756,0.0,1.199834674669682,0.9363120154073235,0.003616133778311167,6.604283680329286,1.0550288612216412,1.199834674669682,1.521934110510644,1.4318564717435485,4.097310085793461,133.5351219692158,4.811534207114605,0.0,1.6312412143651918,1.1812543446356198,0.002223567428368961,5.543316890140614,1.4061790521606425,1.6312412143651918,2.014028233705812,0.7526130078884274,-0.0029836741777797826,132.34285945992843,4.801894815803982,0.0,0.146156748403373,0.1189809666846366,0.0004359670423535263,0.7061180710738874,0.11685061206823263,0.146156748403373,0.18846290228333398,0.9968216453177978,0.4982632474169404,165.02523792103744,5.035253698087982,0.0,G3
0.9869448995693072,0.9287630293849936,0.0006633264666421543,5.620733479607567,0.6489062084324703,0.9869448995693072,1.355234665856161,1.7679689552434843,4.2346753986683305,139.19023944084907,4.925492468259217,0.0,2.64428198150911,2.7789001262986686,0.0015660265019810785,24.448956717939936,1.9156036703178518,2.64428198150911,3.8359500921774905,3.312309062231879,17.894703912072334,119.17454855553046,4.795515654266635,0.0,1.5270126267590212,1.1625894805439312,0.001345757289256233,5.334422602202433,1.319630586841614,1.5270126267590212,1.9192138657671516,0.9565881994608715,0.4650393127811876,119.97341897354826,4.749426485394078,0.0,14.75644438085224,10.902303998407747,0.03208231681801303,56.2469130994711,13.023030644283628,14.75644438085224,18.347012924148803,0.867542052890458,0.44234100572422985,118.78820880351567,4.693020561136381,0.0,0.14359967036183377,0.13107676579480845,3.6391417650421393e-06,1.0156207150690864,0.10506953887616474,0.14359967036183377,0.19442732282077635,2.4192914180318663,8.841364429267058,157.89690509240907,5.05190817624513,0.0,G3
0.4134644132477349,0.46614331172368706,0.00038074032254625974,3.5273396127100245,0.27518757303219155,0.4134644132477349,0.6230910110786548,2.853647805418273,10.686722763490236,181.92376283865266,5.201704449268109,0.0,2.5423299175702097,2.5790287828096945,0.0012225700426621022,17.420586685972992,1.8140314374672462,2.5423299175702097,3.6214404416383,2.164956554920364,6.195385622201263,145.7108531536162,5.012577524407426,0.0,1.1926396067514442,1.0135167736500161,0.0011001842859151949,6.2433675351126565,0.9213339984137319,1.1926396067514442,1.565121555043626,1.437171580673822,2.5143667018379308,138.60617756993219,4.923806556489647,0.0,7.973318019675018,8.466768152485038,0.0021591717782756016,47.67130090710817,4.905779511371168,7.973318019675018,11.630131692754354,1.4851095373412877,1.9726711831822312,119.51943425166479,4.7565620699457405,0.0,0.09748739261451746,0.09392729200207402,0.0004132634152960175,0.571000188407435,0.0716153892468567,0.09748739261451746,0.1353740296423947,1.7606533098080182,3.3549253075947814,172.27156282686116,5.122045897093086,0.0,G3
0.323388602091283,0.29115450884291316,3.655592920063892e-05,1.5688435302995776,0.24200534288003941,0.323388602091283,0.43514495973423867,1.5856971840700755,2.554645999133152,173.39658595726033,5.135663902366776,0.0,1.2611598415565408,1.1167051504560792,0.004258914207289839,5.762187526220822,0.9636121684272428,1.2611598415565408,1.6845042413155433,1.3754519443997795,1.7848062524722268,143.4051055581783,4.972832742511618,0.0,1.210357776231018,0.8508119313793777,0.0002764958990833996,4.342364019009336,1.0696274294169288,1.210357776231018,1.4794752073152162,0.7227693502978086,-0.003367027329258754,134.82813737460575,4.831198842357459,0.0,1.4903082516692756,1.201869319218822,0.015994505190807265,6.677495570712445,1.1901592027524384,1.4903082516692756,1.9145517870961464,1.2528843346904013,1.56262884833306,136.6986479525669,4.882972990590917,0.0,0.07548479723183515,0.06458409760491754,4.003959823807731e-05,0.3887535685279459,0.0600432748768461,0.07548479723183515,0.0993431440843946,1.404277551259871,2.530326001867196,135.89934184836488,4.9033528118555765,0.0,G3
0.2368639855983299,0.20898359216072548,0.0007207294451800836,1.0940425361213817,0.17271057907258466,0.2368639855983299,0.31587764951944014,1.3758374660463362,1.9902275721486689,153.7392726533777,5.021517125564112,0.0,1.0629495940795566,0.7980539881759496,0.0008041621415425318,4.132150135113831,0.9079207333156218,1.0629495940795566,1.329192238766625,1.0527181052596501,1.035541500044145,137.41648406188523,4.865898159504132,0.0,1.1601829169159636,0.8903774148132376,0.0008362537212745352,4.233058267985824,0.9893666284116405,1.1601829169159636,1.4624624239662152,0.99219256690144,0.6647415162059187,128.97466672122582,4.818805698660153,0.0,1.55306329071142,1.2175906882265912,0.0016343826918933345,5.626383016199334,1.3082906317348422,1.55306329071142,1.9734570350051932,0.8507812852923584,-0.0261623290356936,133.34780600975463,4.869741025155687,0.0,0.176532799167065,0.15142623229348323,2.0267318850695874e-05,0.7831877622011479,0.1297299986900805,0.176532799167065,0.23258059465131486,1.0560729060425256,0.5739917081245083,162.11161859310602,5.0878207317403294,0.0,G3
0.4232874523179926,0.41494198344145683,0.0004568826779405479,2.668679477586117,0.2930511451670739,0.4232874523179926,0.5927470935501811,1.6546616042454536,3.444435648127289,152.17627757005098,5.024166440406996,0.0,2.2870739414952306,2.050224960623358,0.0014975107313399943,12.599360703329399,1.7490492900153067,2.2870739414952306,3.0715028248447984,1.6068705177984848,3.5117647818655033,114.52648900834087,4.719605247597299,0.0,2.2089579655085725,1.9769929234483439,0.0025815379388555264,10.859868539454798,1.6642863844607474,2.2089579655085725,2.9644554833474226,1.4082385830168678,2.101557516096598,135.58679665362436,4.88082436474984,0.0,12.781647344606759,13.51425729861146,0.006303802863994243,78.16050762542044,8.660173540059752,12.781647344606759,18.60122735668177,2.2442039829004563,6.0060769869278925,84.78093869176638,4.450108410439796,0.0,1.5185584087880128,2.5853386752187437,0.00010206403691343652,19.859868943989518,0.654720275926032,1.5185584087880128,2.99833215412879,3.7192656890223383,16.286845940212928,127.6021461920367,4.9426612969795904,0.0,G3
0.4195813417263886,0.41853157051162415,0.0004671085829452623,2.604230681902695,0.28889485372632073,0.4195813417263886,0.5926357885243204,1.930733081587048,4.403384357737765,163.07151796102298,5.099851912846053,0.0,1.7673160133775092,1.5438148001736745,0.00160467696426278,9.40204707149915,1.3283003605504584,1.7673160133775092,2.346650810916668,1.579957777690273,3.2777409538349023,134.1489712607754,4.8774821440024665,0.0,2.0090231386256066,2.3850687552455656,0.0006275817941387152,17.455129560269533,1.381837549913476,2.0090231386256066,3.1184494446409925,3.3236632520697693,13.906295338432322,120.42803110938631,4.855884430536783,0.0,9.465923466593338,13.850914793181465,0.00276198023500469,89.71801463674294,3.725072009332466,9.465923466593338,16.776517746045382,2.924984520786199,10.220216157705288,91.18487599272802,4.530485235243654,0.0,0.7427501372344216,1.7416425184424629,0.0006715270389299555,15.138521637743937,0.20666056673915223,0.7427501372344216,1.893408679711899,4.651312228947904,25.394023527948807,126.94957778529574,4.917065568340728,0.0,G3
1.3243114285498376,1.0498204531510367,0.002772962513502203,7.19659814618432,1.0845827299856388,1.3243114285498376,1.689947852343959,1.2576928322873024,2.421205769584393,155.4249972173829,5.02700912356188,0.0,0.8586850452757044,0.7040952989126953,0.00041189895354258946,3.1462401157343054,0.6288603798264771,0.8586850452757044,1.110445945073913,1.0297688542385721,0.36382083537970233,125.27240302934874,4.791621986764644,0.0,3.2358986076191742,1.7460293679890018,0.014090371323652921,8.661486889095485,3.056379571835963,3.2358986076191742,3.6769088039645177,0.46159693318511935,-0.0602761999999637,96.0768882986372,4.261652802968612,0.0,1.5697755233014299,1.2025394432365932,0.00014079055984514768,5.946477673735668,1.3479123143782608,1.5697755233014299,1.9774469161259558,0.982613539731302,0.5478285541807559,138.8375070632611,4.831439186831228,0.0,0.18643312774117576,0.05628607209247611,0.08979365518104954,0.3093502846160287,0.17580693020837485,0.18643312774117576,0.19474453273701156,0.5193949003499891,-0.9388393469973262,89.48832992183041,3.3823701371426456,0.0,G5
1.4141974301479758,1.138286188490159,0.0033355275707754733,7.228111559585239,1.1830559522775304,1.4141974301479758,1.8153924695075145,1.8237289499507274,4.965876856558043,141.22201360446337,4.884955440490792,0.0,0.8186224932200405,0.6479202057983144,0.0016693552999457045,3.2469584174905752,0.6501791523805086,0.8186224932200405,1.0440035342313383,1.0774439385969987,0.6399704472616179,119.80772156182009,4.7230610112775375,0.0,3.1793625709453046,1.5213032063980851,0.009045708889715232,7.46893001768967,3.147907036740046,3.1793625709453046,3.5245864726695286,0.10889718930153411,-0.28093990164671734,60.649748640084205,3.8481797243231126,0.0,1.7984397654915063,1.4078132168546562,0.0043839465236574365,8.206529039570217,1.5411019951233007,1.7984397654915063,2.2839272413217984,1.2406566285962572,1.8134909289978314,127.41850069180019,4.779637751620522,0.0,0.08916120722397164,0.011182103796108908,0.07881374290352725,0.11633851995839467,0.08374567537124535,0.08916120722397164,0.08985967014708528,1.0280228340706299,-0.3204053548153589,47.06624530563872,2.005841897965605,0.0,G5
1.378902293445914,1.1082677539210088,0.002485053824937246,7.135153537990624,1.166613543052604,1.378902293445914,1.7690757330457958,1.464268077242857,3.4049285324930247,133.9786960715184,4.854176756177469,0.0,1.0200323555904842,0.7092776669530831,0.0010116397482306284,3.056417618458075,0.8738759690935985,1.0200323555904842,1.2423931806356154,0.6700864163951277,-0.35998072381039137,131.8606902138517,4.805901145926467,0.0,3.2847909345686657,1.4114518617048966,0.016277968144940008,7.362040545178393,3.227737522718231,3.2847909345686657,3.5751989933057864,0.12910171027625922,-0.2830760444050773,76.98306135334099,4.055878226914367,0.0,1.948577436382752,1.3165425138244091,9.210535323897484e-05,7.61156109740577,1.750318584536379,1.948577436382752,2.3516458526502397,0.871517820786975,0.7537199391313849,126.34446113454332,4.77278128516199,0.0,0.06683902860486682,0.02528270267775848,0.0073733339917513505,0.19191219623179723,0.06701151116011606,0.06683902860486682,0.07146097396155568,1.7965139392943785,6.323576091033816,81.76660284960936,3.969054708562402,0.0,G5
0.7792685067699856,0.6164727229806467,0.0007849697542290715,2.846288780695976,0.6449335680906154,0.7792685067699856,0.9936287152768363,0.9229874656165244,0.24077181151430604,90.987816175707,4.404510184086232,0.0,1.0285071909033427,0.8496511186921907,0.00036034674697689104,3.95891437951985,0.8157107568282365,1.0285071909033427,1.334066739423023,1.2645859176159637,1.1172669494471865,123.45366526453701,4.6063409975939615,0.0,3.153067285029324,1.500039887395381,0.0060101933207879765,7.032728238008772,3.104104350428103,3.153067285029324,3.4916977199779677,0.0676975374940717,-0.6652985504349558,58.98595539367627,3.6408895377341888,0.0,1.0434476520027578,0.8505158708512776,0.0007362215242952325,4.040769408225381,0.8463555096196964,1.0434476520027578,1.3461650155311478,1.015052117637435,0.4999030598577656,88.97995234928251,4.471086930911813,0.0,0.15633751092338266,0.138753894133952,5.780421016963501e-05,1.011793083980981,0.12874780338374114,0.15633751092338266,0.20903124278216104,1.7967238402921883,5.024991314175372,151.60866375013103,5.0319194208444795,0.0,G5
0.7839291081781037,0.5768068061814094,0.0012742717995123595,3.090547636761269,0.6927279426854576,0.7839291081781037,0.9732681738894554,0.8114576169613523,0.363420576610459,130.89172668982073,4.759213115388572,0.0,0.7939495574342798,0.652905509343715,1.2134044222676318e-05,3.147317918680011,0.6702844973062101,0.7939495574342798,1.027930690212849,1.222515168350674,1.4509281846389745,99.78611439140595,4.574875187535121,0.0,3.1717863678742777,1.445640483912391,0.012083908220775982,7.049267556758301,3.099036716780313,3.1717863678742777,3.485700097851156,0.17982060715468673,-0.2850845841877394,50.592280512467305,3.611266436854362,0.0,1.2677646998172047,1.0627914014060873,0.001817433301691207,5.490647625192466,0.9695388899958804,1.2677646998172047,1.6543134216360942,1.1908657255518524,1.5043437019806492,86.38793735631421,4.396934328618976,0.0,0.09654486882992129,0.09219126611047665,0.0001107465568732837,0.5921245289628468,0.07246941867484896,0.09654486882992129,0.13349210180546048,1.8518260650860363,4.205208254156121,183.63858096761723,5.21624894357784,0.0,G5
0.7120993153729526,0.5043099049820385,0.0004736410185079215,2.5790347629259,0.6356809530037256,0.7120993153729526,0.872590347882453,0.626804942002052,-0.3410901357218874,131.3067980706748,4.718682055189666,0.0,0.9523838612923226,0.7998125285274685,0.0016426439344146958,3.8593164726971354,0.744535938070751,0.9523838612923226,1.2436780532113512,0.9435028775292169,0.2335337729952789,84.43411188078325,4.422337730541073,0.0,3.2738035987197245,1.5728089586830243,0.02125326336216677,8.989510315232934,3.3013645609534477,3.2738035987197245,3.6320129437412247,0.4256259290491044,0.7205803537004662,80.65572232526533,3.9683081337639736,0.0,1.124090961734517,0.8791588140885808,0.002388682400240087,4.667777458814917,0.9116213964405195,1.124090961734517,1.4270601636381244,1.268033318055591,1.8582131548171397,114.32864123387016,4.654794814125918,0.0,0.1347814278593304,0.11541293579102707,5.107606833551254e-05,0.5979803795739277,0.10204636805699042,0.1347814278593304,0.17744345308774745,1.2941368456630136,1.4220913357996965,155.38059213371483,5.005166787462549,0.0,G5
0.42801038510328626,0.4357956840709952,0.0006297758049325329,2.6639690828821707,0.2943920503647658,0.42801038510328626,0.6108279365019007,2.2360066466469664,6.10395372064111,130.271263676811,4.887876660469596,0.0,6.323750995023689,8.506697463583448,0.00941996703257443,49.87345337439224,3.1157081078883455,6.323750995023689,10.599704164928385,2.6562083046210736,7.927977634414928,130.7716256915545,4.940565790935968,0.0,2.039009673323504,2.2537743826357035,0.0016234522811037905,15.77475161337317,1.267529894115491,2.039009673323504,3.039253101624109,2.277072890002754,7.111708517776917,138.39822747039065,4.944557232309006,0.0,28.139994408535642,23.482374801679928,0.021767438697287256,148.1386441785384,23.67295986723248,28.139994408535642,36.65080096858716,1.4285366379372981,3.181280701201092,97.92344403531033,4.4980714739089915,0.0,0.6181401236129835,0.8025512833900462,0.0005537813106445515,4.175420286492812,0.3207895831351006,0.6181401236129835,1.0130082797742992,2.2362473021066775,5.026532306845652,137.67427128264046,4.788339644910462,0.0,G3
0.34962416426870163,0.3712566441316073,4.481919331981261e-05,3.3626345232039405,0.25328752038305646,0.34962416426870163,0.5099691677468854,2.9303208030633496,15.024296520046818,151.59671180771218,5.043900065588851,0.0,1.5440480508435084,1.1066110726085814,0.002336586125169594,5.6125084288687175,1.3320186046923852,1.5440480508435084,1.899650612437338,0.8687705300157365,0.40282541843195707,142.6182645811519,4.894976293186805,0.0,1.4755777687038074,1.189170439401094,0.0034886734340068906,7.248576124680735,1.224977768937534,1.4755777687038074,1.8951137394463422,1.1829436374766613,2.0034641135815585,115.57123235165756,4.706056934469933,0.0,18.293581740218414,15.756452436400018,0.03878007427128724,78.69003210511899,13.946273551648893,18.293581740218414,24.143755430060764,1.4620579636003082,2.47526508465353,97.35031597267144,4.474204015963501,0.0,1.9057316811475635,1.9419131791589468,0.00015123843926464695,9.700477773251635,1.221562823254334,1.9057316811475635,2.7208160606554657,1.5223499657924877,2.1078508677104617,86.85535635932071,4.096650722406643,0.0,G3
1.1910758190184214,2.452551124220579,0.00021757459116354336,21.449820203812333,0.5176373768054825,1.1910758190184214,2.7264754947671963,5.038603198789275,30.3252235486459,79.35631153134041,4.493027338002969,0.0,1.0891251985022696,0.8555536279674031,0.0009764481525276966,4.259556972925973,0.9170457838894837,1.0891251985022696,1.3849785949034712,1.074581706467486,0.8166705104593008,114.48205965724809,4.707089712232335,0.0,1.129872716915084,0.7907575938202659,0.004047140077274761,4.463155308866262,1.0177964317435806,1.129872716915084,1.379097505114664,1.0195037514877732,1.1719627579755834,124.74169851581824,4.766202948881073,0.0,10.787326162884666,10.86861632244934,0.006762396022385712,56.453959551926836,7.689363678285173,10.787326162884666,15.31317166719776,1.5530977928857446,2.4763100697399514,99.95649223170061,4.615393948618149,0.0,0.1741954035824813,0.1460344372622487,0.00021015489503806118,0.9119124182754728,0.1378827193521983,0.1741954035824813,0.22731057057639267,1.4793512571137837,2.786883728428262,156.62178958522145,5.027464156537082,0.0,G3
1.0814706871244824,1.0343355416344036,0.0001779559294907418,6.121916151179727,0.7854050817391927,1.0814706871244824,1.4964721379957713,1.9179548285041024,4.361619047128134,150.2086963098988,5.013809559867038,0.0,0.8578044242685562,0.725975092387744,0.00011962201561763891,3.395044928846794,0.6478481608198845,0.8578044242685562,1.1237741165652921,1.176507035979213,0.9170263203580054,117.97174080623124,4.711572321512407,0.0,3.4279244165526244,1.5536172535031594,0.011800657913732235,7.462837960153884,3.3427989994473477,3.4279244165526244,3.7635611295660323,0.013708921239566336,-0.34612866250435914,101.31499005766526,4.137688851271927,0.0,1.074259644768947,0.7509233994609895,0.0005167706029819401,3.7168493569881123,0.9755885017902554,1.074259644768947,1.3106943717881576,0.6930680757733014,0.15451378709595875,96.09253310297663,4.4470728132431665,0.0,0.18578243136500638,0.15730391573672728,0.00024079236472037823,0.9068415802837531,0.13897990100311164,0.18578243136500638,0.24343301688555047,1.2569104738218413,1.302093718657816,140.17124910797017,4.912809917869029,0.0,G4
